frequency,raw,error,smoothed,error_smoothed,equalization,parametric_eq,equalized_raw,equalized_smoothed,target
20.00,-8.11,-11.77,-8.13,-11.79,11.83,11.86,3.72,3.70,3.66
20.20,-8.08,-11.77,-8.06,-11.75,11.75,11.76,3.67,3.69,3.69
20.40,-7.98,-11.70,-7.97,-11.69,11.67,11.66,3.69,3.70,3.72
20.61,-7.88,-11.62,-7.87,-11.62,11.59,11.56,3.71,3.71,3.74
20.81,-7.73,-11.50,-7.74,-11.52,11.50,11.45,3.77,3.75,3.77
21.02,-7.62,-11.42,-7.62,-11.41,11.40,11.35,3.78,3.78,3.80
21.23,-7.48,-11.29,-7.49,-11.30,11.30,11.24,3.82,3.81,3.81
21.44,-7.37,-11.19,-7.37,-11.19,11.20,11.14,3.82,3.83,3.82
21.66,-7.23,-11.07,-7.24,-11.07,11.08,11.03,3.84,3.84,3.83
21.87,-7.12,-10.95,-7.12,-10.95,10.96,10.92,3.83,3.84,3.83
22.09,-6.99,-10.83,-6.99,-10.83,10.83,10.81,3.84,3.84,3.84
22.31,-6.87,-10.71,-6.87,-10.72,10.71,10.69,3.84,3.84,3.84
22.54,-6.75,-10.60,-6.75,-10.59,10.59,10.58,3.83,3.84,3.84
22.76,-6.62,-10.46,-6.62,-10.46,10.47,10.47,3.84,3.84,3.84
22.99,-6.50,-10.33,-6.50,-10.34,10.34,10.35,3.84,3.84,3.83
23.22,-6.37,-10.21,-6.38,-10.22,10.22,10.23,3.85,3.84,3.83
23.45,-6.27,-10.10,-6.27,-10.10,10.10,10.12,3.83,3.83,3.83
23.69,-6.16,-9.99,-6.15,-9.98,9.97,10.00,3.82,3.82,3.83
23.92,-6.02,-9.85,-6.03,-9.86,9.85,9.88,3.83,3.82,3.83
24.16,-5.90,-9.73,-5.90,-9.73,9.73,9.76,3.82,3.83,3.83
24.40,-5.77,-9.60,-5.77,-9.60,9.60,9.64,3.83,3.83,3.83
24.65,-5.65,-9.48,-5.65,-9.47,9.48,9.52,3.83,3.83,3.82
24.89,-5.52,-9.34,-5.53,-9.35,9.36,9.39,3.84,3.83,3.82
25.14,-5.41,-9.23,-5.41,-9.23,9.24,9.27,3.82,3.83,3.82
25.39,-5.30,-9.12,-5.30,-9.12,9.11,9.15,3.81,3.82,3.82
25.65,-5.17,-9.00,-5.18,-9.00,8.99,9.02,3.82,3.81,3.82
25.91,-5.07,-8.89,-5.07,-8.88,8.88,8.90,3.80,3.81,3.81
26.16,-4.94,-8.75,-4.94,-8.75,8.76,8.77,3.82,3.81,3.81
26.43,-4.82,-8.64,-4.82,-8.63,8.64,8.65,3.81,3.81,3.81
26.69,-4.69,-8.50,-4.70,-8.51,8.52,8.53,3.82,3.81,3.81
26.96,-4.59,-8.41,-4.59,-8.40,8.39,8.40,3.80,3.81,3.81
27.23,-4.47,-8.28,-4.47,-8.27,8.27,8.28,3.80,3.80,3.80
27.50,-4.34,-8.15,-4.35,-8.15,8.15,8.15,3.80,3.80,3.80
27.77,-4.23,-8.02,-4.23,-8.02,8.03,8.03,3.79,3.80,3.79
28.05,-4.11,-7.90,-4.11,-7.90,7.90,7.90,3.79,3.79,3.79
28.33,-3.99,-7.77,-4.00,-7.78,7.78,7.78,3.79,3.79,3.78
28.62,-3.88,-7.67,-3.88,-7.66,7.66,7.66,3.78,3.78,3.78
28.90,-3.76,-7.54,-3.76,-7.54,7.54,7.54,3.78,3.78,3.78
29.19,-3.65,-7.42,-3.65,-7.42,7.42,7.41,3.77,3.77,3.77
29.48,-3.53,-7.30,-3.54,-7.31,7.31,7.29,3.77,3.77,3.77
29.78,-3.43,-7.20,-3.43,-7.19,7.19,7.17,3.76,3.76,3.76
30.08,-3.32,-7.09,-3.31,-7.07,7.07,7.05,3.75,3.76,3.76
30.38,-3.19,-6.94,-3.20,-6.95,6.95,6.93,3.77,3.76,3.75
30.68,-3.08,-6.83,-3.08,-6.83,6.83,6.81,3.75,3.75,3.75
30.99,-2.97,-6.72,-2.97,-6.72,6.72,6.69,3.74,3.74,3.74
31.30,-2.87,-6.61,-2.87,-6.60,6.60,6.58,3.72,3.73,3.73
31.61,-2.75,-6.48,-2.75,-6.48,6.48,6.46,3.73,3.73,3.73
31.93,-2.63,-6.36,-2.64,-6.36,6.36,6.34,3.73,3.73,3.72
32.24,-2.52,-6.23,-2.52,-6.24,6.25,6.23,3.72,3.72,3.71
32.57,-2.41,-6.13,-2.42,-6.12,6.13,6.11,3.71,3.71,3.71
32.89,-2.31,-6.01,-2.32,-6.02,6.01,5.99,3.70,3.70,3.70
33.22,-2.21,-5.90,-2.21,-5.90,5.89,5.88,3.68,3.69,3.69
33.55,-2.10,-5.79,-2.09,-5.78,5.77,5.76,3.67,3.68,3.69
33.89,-1.96,-5.64,-1.98,-5.66,5.66,5.65,3.69,3.68,3.68
34.23,-1.86,-5.54,-1.86,-5.53,5.54,5.53,3.68,3.68,3.67
34.57,-1.75,-5.41,-1.75,-5.42,5.42,5.42,3.67,3.67,3.66
34.92,-1.65,-5.31,-1.65,-5.31,5.31,5.31,3.65,3.65,3.65
35.27,-1.55,-5.20,-1.55,-5.19,5.19,5.19,3.64,3.64,3.64
35.62,-1.44,-5.08,-1.45,-5.08,5.08,5.08,3.63,3.63,3.63
35.97,-1.34,-4.96,-1.34,-4.96,4.96,4.96,3.62,3.62,3.62
36.33,-1.24,-4.85,-1.24,-4.85,4.85,4.85,3.61,3.61,3.61
36.70,-1.13,-4.74,-1.14,-4.74,4.74,4.74,3.60,3.60,3.60
37.06,-1.03,-4.62,-1.03,-4.62,4.62,4.62,3.59,3.59,3.59
37.43,-0.93,-4.51,-0.93,-4.51,4.51,4.51,3.58,3.58,3.58
37.81,-0.82,-4.39,-0.83,-4.40,4.40,4.40,3.57,3.57,3.57
38.19,-0.72,-4.29,-0.72,-4.29,4.28,4.29,3.56,3.56,3.56
38.57,-0.62,-4.17,-0.62,-4.17,4.17,4.17,3.55,3.55,3.55
38.95,-0.51,-4.05,-0.52,-4.05,4.06,4.06,3.55,3.54,3.54
39.34,-0.41,-3.93,-0.42,-3.95,3.95,3.95,3.54,3.53,3.52
39.74,-0.33,-3.85,-0.32,-3.84,3.84,3.84,3.50,3.51,3.51
40.14,-0.23,-3.74,-0.23,-3.73,3.73,3.73,3.50,3.50,3.50
40.54,-0.12,-3.62,-0.14,-3.63,3.62,3.63,3.50,3.49,3.49
40.94,-0.04,-3.52,-0.04,-3.52,3.52,3.52,3.47,3.48,3.48
41.35,0.06,-3.41,0.06,-3.41,3.41,3.41,3.47,3.47,3.47
41.76,0.16,-3.30,0.16,-3.31,3.31,3.31,3.47,3.47,3.46
42.18,0.25,-3.20,0.25,-3.20,3.21,3.20,3.46,3.46,3.45
42.60,0.35,-3.09,0.34,-3.11,3.11,3.10,3.45,3.44,3.44
43.03,0.41,-3.02,0.42,-3.01,3.00,3.00,3.41,3.42,3.43
43.46,0.51,-2.90,0.50,-2.91,2.90,2.90,3.41,3.40,3.41
43.90,0.60,-2.80,0.59,-2.80,2.80,2.79,3.39,3.38,3.39
44.33,0.67,-2.70,0.68,-2.69,2.69,2.69,3.36,3.37,3.37
44.78,0.78,-2.58,0.77,-2.59,2.59,2.59,3.36,3.35,3.35
45.23,0.86,-2.48,0.86,-2.48,2.48,2.49,3.34,3.34,3.33
45.68,0.94,-2.39,0.94,-2.38,2.38,2.39,3.32,3.32,3.32
46.13,1.04,-2.26,1.03,-2.28,2.28,2.29,3.32,3.31,3.30
46.60,1.10,-2.20,1.11,-2.18,2.18,2.18,3.27,3.29,3.29
47.06,1.21,-2.06,1.19,-2.08,2.08,2.08,3.28,3.27,3.27
47.53,1.27,-1.98,1.27,-1.98,1.98,1.98,3.24,3.25,3.25
48.01,1.36,-1.89,1.35,-1.88,1.88,1.88,3.23,3.23,3.24
48.49,1.43,-1.79,1.43,-1.78,1.78,1.78,3.20,3.20,3.21
48.97,1.51,-1.67,1.51,-1.67,1.67,1.68,3.18,3.18,3.18
49.46,1.59,-1.56,1.58,-1.57,1.57,1.58,3.16,3.16,3.15
49.96,1.66,-1.47,1.66,-1.47,1.47,1.48,3.13,3.13,3.12
50.46,1.73,-1.38,1.73,-1.37,1.37,1.38,3.10,3.10,3.10
50.96,1.81,-1.27,1.80,-1.27,1.28,1.28,3.08,3.08,3.08
51.47,1.88,-1.17,1.88,-1.18,1.18,1.18,3.06,3.05,3.05
51.99,1.95,-1.09,1.95,-1.09,1.08,1.08,3.03,3.03,3.03
52.51,2.02,-1.00,2.02,-0.99,0.99,0.99,3.00,3.01,3.01
53.03,2.10,-0.89,2.09,-0.90,0.89,0.89,2.99,2.99,2.99
53.56,2.17,-0.79,2.17,-0.80,0.80,0.80,2.97,2.96,2.96
54.10,2.24,-0.71,2.23,-0.71,0.70,0.71,2.94,2.94,2.94
54.64,2.30,-0.62,2.30,-0.61,0.61,0.61,2.91,2.91,2.91
55.18,2.37,-0.52,2.37,-0.52,0.52,0.53,2.89,2.89,2.89
55.74,2.44,-0.43,2.43,-0.43,0.43,0.44,2.87,2.87,2.86
56.29,2.51,-0.33,2.50,-0.34,0.35,0.35,2.85,2.84,2.84
56.86,2.55,-0.28,2.56,-0.26,0.26,0.27,2.81,2.82,2.82
57.42,2.62,-0.17,2.61,-0.18,0.18,0.18,2.80,2.80,2.79
58.00,2.68,-0.09,2.67,-0.10,0.10,0.10,2.78,2.77,2.77
58.58,2.72,-0.03,2.72,-0.03,0.02,0.02,2.74,2.75,2.75
59.16,2.78,0.05,2.78,0.05,-0.05,-0.06,2.72,2.73,2.73
59.76,2.84,0.12,2.84,0.13,-0.13,-0.14,2.70,2.70,2.71
60.35,2.90,0.22,2.89,0.21,-0.21,-0.22,2.69,2.68,2.68
60.96,2.94,0.28,2.94,0.29,-0.29,-0.29,2.65,2.65,2.65
61.57,2.98,0.36,2.98,0.37,-0.37,-0.37,2.61,2.62,2.61
62.18,3.03,0.45,3.02,0.44,-0.44,-0.44,2.59,2.58,2.58
62.80,3.07,0.52,3.07,0.52,-0.51,-0.51,2.55,2.55,2.55
63.43,3.11,0.59,3.11,0.59,-0.59,-0.58,2.52,2.53,2.52
64.07,3.16,0.66,3.15,0.65,-0.65,-0.65,2.50,2.50,2.49
64.71,3.19,0.72,3.19,0.72,-0.72,-0.72,2.47,2.47,2.47
65.35,3.22,0.78,3.23,0.78,-0.78,-0.78,2.43,2.44,2.44
66.01,3.27,0.86,3.26,0.84,-0.85,-0.85,2.42,2.41,2.41
66.67,3.29,0.91,3.29,0.90,-0.91,-0.91,2.38,2.38,2.38
67.33,3.31,0.96,3.32,0.97,-0.97,-0.97,2.34,2.35,2.35
68.01,3.35,1.03,3.35,1.02,-1.02,-1.02,2.32,2.32,2.32
68.69,3.39,1.10,3.38,1.09,-1.08,-1.08,2.31,2.30,2.29
69.37,3.40,1.14,3.40,1.14,-1.14,-1.13,2.26,2.27,2.26
70.07,3.43,1.20,3.42,1.19,-1.19,-1.19,2.24,2.23,2.23
70.77,3.44,1.24,3.44,1.24,-1.24,-1.24,2.19,2.20,2.20
71.48,3.46,1.29,3.46,1.29,-1.29,-1.29,2.16,2.16,2.17
72.19,3.48,1.35,3.47,1.34,-1.34,-1.34,2.13,2.13,2.13
72.91,3.48,1.38,3.49,1.39,-1.39,-1.38,2.09,2.10,2.10
73.64,3.51,1.45,3.51,1.44,-1.44,-1.43,2.07,2.07,2.06
74.38,3.53,1.50,3.52,1.49,-1.48,-1.48,2.05,2.04,2.03
75.12,3.53,1.54,3.53,1.53,-1.53,-1.52,2.00,2.00,1.99
75.87,3.53,1.57,3.53,1.57,-1.57,-1.57,1.96,1.96,1.96
76.63,3.53,1.60,3.54,1.61,-1.61,-1.61,1.91,1.93,1.93
77.40,3.57,1.67,3.55,1.65,-1.66,-1.66,1.91,1.90,1.90
78.17,3.57,1.71,3.56,1.70,-1.70,-1.70,1.87,1.86,1.86
78.95,3.57,1.74,3.58,1.74,-1.74,-1.75,1.83,1.83,1.83
79.74,3.58,1.78,3.58,1.79,-1.79,-1.79,1.79,1.80,1.80
80.54,3.61,1.85,3.59,1.83,-1.83,-1.84,1.77,1.76,1.76
81.35,3.61,1.88,3.61,1.88,-1.88,-1.89,1.73,1.73,1.73
82.16,3.61,1.92,3.63,1.93,-1.93,-1.94,1.68,1.70,1.69
82.98,3.66,2.00,3.64,1.98,-1.98,-1.98,1.68,1.66,1.66
83.81,3.66,2.04,3.66,2.03,-2.03,-2.03,1.63,1.62,1.62
84.65,3.66,2.08,3.67,2.09,-2.08,-2.08,1.57,1.59,1.58
85.50,3.70,2.15,3.68,2.13,-2.13,-2.13,1.56,1.55,1.55
86.35,3.70,2.19,3.70,2.19,-2.19,-2.18,1.51,1.51,1.51
87.22,3.70,2.23,3.71,2.24,-2.24,-2.23,1.46,1.48,1.47
88.09,3.74,2.31,3.72,2.29,-2.29,-2.28,1.44,1.43,1.43
88.97,3.74,2.35,3.73,2.34,-2.35,-2.34,1.39,1.39,1.39
89.86,3.74,2.39,3.74,2.40,-2.40,-2.39,1.34,1.34,1.35
90.76,3.75,2.45,3.75,2.45,-2.45,-2.44,1.29,1.30,1.30
91.66,3.78,2.52,3.77,2.51,-2.51,-2.49,1.27,1.26,1.26
92.58,3.79,2.58,3.78,2.57,-2.56,-2.55,1.23,1.22,1.21
93.51,3.79,2.62,3.79,2.62,-2.61,-2.60,1.18,1.18,1.17
94.44,3.79,2.66,3.79,2.66,-2.66,-2.65,1.13,1.13,1.13
95.39,3.79,2.71,3.79,2.70,-2.71,-2.70,1.08,1.08,1.08
96.34,3.79,2.76,3.79,2.76,-2.76,-2.76,1.03,1.03,1.03
97.30,3.79,2.81,3.79,2.80,-2.81,-2.81,0.98,0.98,0.98
98.28,3.79,2.86,3.79,2.85,-2.85,-2.86,0.94,0.94,0.93
99.26,3.79,2.90,3.79,2.90,-2.90,-2.91,0.89,0.89,0.89
100.25,3.79,2.95,3.79,2.95,-2.95,-2.97,0.84,0.84,0.84
101.25,3.79,3.00,3.79,3.00,-2.99,-3.02,0.79,0.79,0.79
102.27,3.79,3.05,3.79,3.04,-3.04,-3.07,0.74,0.74,0.74
103.29,3.79,3.10,3.79,3.09,-3.09,-3.12,0.70,0.70,0.69
104.32,3.79,3.14,3.79,3.14,-3.14,-3.17,0.65,0.65,0.65
105.37,3.79,3.19,3.79,3.19,-3.19,-3.22,0.60,0.60,0.60
106.42,3.79,3.24,3.79,3.23,-3.24,-3.27,0.55,0.55,0.55
107.48,3.79,3.29,3.79,3.29,-3.29,-3.32,0.50,0.50,0.50
108.56,3.79,3.34,3.79,3.34,-3.34,-3.36,0.45,0.45,0.45
109.64,3.79,3.39,3.79,3.38,-3.39,-3.41,0.40,0.40,0.40
110.74,3.79,3.44,3.79,3.44,-3.44,-3.46,0.35,0.35,0.35
111.85,3.79,3.49,3.79,3.49,-3.49,-3.50,0.29,0.29,0.30
112.97,3.79,3.55,3.79,3.54,-3.54,-3.55,0.24,0.25,0.24
114.10,3.79,3.60,3.79,3.60,-3.59,-3.59,0.19,0.20,0.19
115.24,3.79,3.66,3.78,3.65,-3.64,-3.63,0.15,0.14,0.13
116.39,3.78,3.70,3.77,3.69,-3.69,-3.68,0.09,0.08,0.08
117.55,3.74,3.72,3.75,3.73,-3.73,-3.72,0.01,0.02,0.02
118.73,3.74,3.77,3.74,3.77,-3.77,-3.76,-0.03,-0.03,-0.03
119.92,3.74,3.82,3.73,3.80,-3.81,-3.80,-0.07,-0.08,-0.08
121.12,3.72,3.85,3.72,3.85,-3.85,-3.83,-0.13,-0.13,-0.13
122.33,3.70,3.88,3.70,3.88,-3.88,-3.87,-0.18,-0.18,-0.18
123.55,3.70,3.93,3.69,3.91,-3.92,-3.91,-0.22,-0.23,-0.23
124.79,3.67,3.95,3.68,3.95,-3.95,-3.94,-0.29,-0.28,-0.28
126.03,3.66,3.99,3.66,3.99,-3.99,-3.98,-0.33,-0.33,-0.33
127.29,3.66,4.04,3.64,4.02,-4.02,-4.01,-0.37,-0.38,-0.38
128.57,3.61,4.05,3.62,4.06,-4.06,-4.04,-0.45,-0.43,-0.44
129.85,3.61,4.10,3.60,4.09,-4.09,-4.07,-0.48,-0.49,-0.49
131.15,3.59,4.13,3.59,4.12,-4.12,-4.10,-0.54,-0.54,-0.54
132.46,3.57,4.16,3.57,4.16,-4.16,-4.13,-0.59,-0.58,-0.59
133.79,3.57,4.20,3.56,4.19,-4.19,-4.16,-0.62,-0.63,-0.63
135.12,3.53,4.21,3.54,4.21,-4.22,-4.18,-0.69,-0.68,-0.68
136.48,3.53,4.25,3.52,4.24,-4.24,-4.21,-0.72,-0.73,-0.72
137.84,3.50,4.27,3.50,4.27,-4.27,-4.23,-0.77,-0.77,-0.77
139.22,3.48,4.30,3.48,4.30,-4.30,-4.26,-0.82,-0.81,-0.82
140.61,3.48,4.34,3.47,4.32,-4.32,-4.28,-0.84,-0.85,-0.86
142.02,3.44,4.33,3.45,4.34,-4.34,-4.30,-0.90,-0.89,-0.89
143.44,3.44,4.37,3.43,4.36,-4.35,-4.32,-0.92,-0.93,-0.93
144.87,3.40,4.37,3.40,4.37,-4.37,-4.34,-0.97,-0.96,-0.97
146.32,3.38,4.39,3.38,4.38,-4.38,-4.35,-1.00,-1.00,-1.01
147.78,3.35,4.39,3.34,4.38,-4.39,-4.37,-1.04,-1.05,-1.04
149.26,3.31,4.39,3.32,4.39,-4.40,-4.38,-1.09,-1.08,-1.08
150.75,3.29,4.41,3.28,4.40,-4.41,-4.39,-1.12,-1.12,-1.12
152.26,3.26,4.42,3.25,4.41,-4.42,-4.41,-1.16,-1.16,-1.16
153.78,3.22,4.42,3.22,4.42,-4.42,-4.42,-1.21,-1.20,-1.20
155.32,3.20,4.44,3.20,4.43,-4.43,-4.43,-1.24,-1.24,-1.24
156.88,3.17,4.45,3.16,4.44,-4.44,-4.43,-1.27,-1.27,-1.28
158.44,3.14,4.46,3.13,4.45,-4.45,-4.44,-1.31,-1.31,-1.32
160.03,3.09,4.45,3.10,4.45,-4.45,-4.45,-1.36,-1.36,-1.36
161.63,3.06,4.46,3.06,4.45,-4.46,-4.45,-1.40,-1.40,-1.40
163.24,3.03,4.47,3.02,4.45,-4.46,-4.45,-1.43,-1.44,-1.44
164.88,2.98,4.45,2.99,4.46,-4.46,-4.45,-1.48,-1.47,-1.47
166.53,2.95,4.46,2.95,4.46,-4.46,-4.45,-1.51,-1.51,-1.51
168.19,2.92,4.47,2.91,4.46,-4.46,-4.45,-1.54,-1.55,-1.55
169.87,2.87,4.46,2.87,4.46,-4.46,-4.45,-1.59,-1.58,-1.59
171.57,2.84,4.47,2.83,4.45,-4.45,-4.45,-1.62,-1.62,-1.63
173.29,2.78,4.44,2.78,4.44,-4.45,-4.44,-1.67,-1.66,-1.66
175.02,2.74,4.44,2.74,4.44,-4.44,-4.44,-1.70,-1.70,-1.70
176.77,2.70,4.44,2.69,4.43,-4.43,-4.43,-1.74,-1.74,-1.74
178.54,2.65,4.43,2.65,4.43,-4.42,-4.42,-1.78,-1.77,-1.78
180.32,2.60,4.42,2.60,4.41,-4.41,-4.41,-1.81,-1.81,-1.82
182.13,2.55,4.40,2.54,4.40,-4.40,-4.40,-1.85,-1.85,-1.85
183.95,2.50,4.39,2.50,4.38,-4.38,-4.39,-1.89,-1.89,-1.89
185.79,2.44,4.36,2.45,4.37,-4.37,-4.38,-1.93,-1.92,-1.92
187.65,2.41,4.37,2.40,4.35,-4.35,-4.37,-1.94,-1.96,-1.96
189.52,2.35,4.34,2.35,4.33,-4.34,-4.35,-1.99,-1.99,-1.99
191.42,2.29,4.31,2.30,4.32,-4.32,-4.34,-2.03,-2.02,-2.02
193.33,2.26,4.31,2.25,4.30,-4.30,-4.32,-2.05,-2.05,-2.05
195.27,2.21,4.29,2.20,4.28,-4.29,-4.30,-2.08,-2.08,-2.08
197.22,2.16,4.27,2.16,4.27,-4.27,-4.28,-2.11,-2.10,-2.11
199.19,2.12,4.26,2.12,4.25,-4.25,-4.27,-2.13,-2.13,-2.14
201.18,2.08,4.24,2.07,4.23,-4.23,-4.25,-2.15,-2.15,-2.16
203.19,2.03,4.21,2.03,4.21,-4.21,-4.23,-2.18,-2.18,-2.18
205.23,1.99,4.19,1.98,4.18,-4.18,-4.21,-2.20,-2.20,-2.20
207.28,1.94,4.15,1.94,4.16,-4.16,-4.18,-2.22,-2.22,-2.21
209.35,1.91,4.14,1.91,4.14,-4.14,-4.16,-2.23,-2.23,-2.23
211.44,1.88,4.13,1.87,4.12,-4.11,-4.14,-2.24,-2.24,-2.25
213.56,1.84,4.10,1.84,4.09,-4.09,-4.11,-2.25,-2.25,-2.26
215.69,1.80,4.06,1.80,4.06,-4.07,-4.09,-2.27,-2.26,-2.26
217.85,1.77,4.04,1.77,4.04,-4.04,-4.07,-2.28,-2.28,-2.27
220.03,1.75,4.03,1.74,4.02,-4.02,-4.04,-2.28,-2.28,-2.28
222.23,1.71,4.00,1.71,4.00,-4.00,-4.01,-2.29,-2.29,-2.29
224.45,1.70,3.99,1.69,3.98,-3.98,-3.99,-2.28,-2.29,-2.29
226.70,1.66,3.95,1.67,3.95,-3.95,-3.96,-2.30,-2.29,-2.29
228.96,1.66,3.95,1.65,3.93,-3.93,-3.93,-2.27,-2.28,-2.29
231.25,1.62,3.90,1.62,3.91,-3.91,-3.90,-2.29,-2.29,-2.28
233.57,1.61,3.89,1.61,3.88,-3.88,-3.87,-2.28,-2.28,-2.28
235.90,1.58,3.86,1.58,3.85,-3.86,-3.84,-2.28,-2.28,-2.28
238.26,1.57,3.84,1.56,3.83,-3.83,-3.80,-2.26,-2.27,-2.27
240.64,1.53,3.79,1.54,3.80,-3.80,-3.76,-2.27,-2.26,-2.26
243.05,1.53,3.78,1.51,3.76,-3.76,-3.73,-2.24,-2.25,-2.25
245.48,1.49,3.73,1.49,3.73,-3.73,-3.69,-2.24,-2.24,-2.24
247.93,1.45,3.68,1.46,3.69,-3.69,-3.65,-2.24,-2.22,-2.23
250.41,1.44,3.66,1.43,3.64,-3.64,-3.60,-2.21,-2.22,-2.22
252.92,1.40,3.60,1.39,3.59,-3.60,-3.56,-2.20,-2.20,-2.20
255.45,1.36,3.54,1.36,3.55,-3.54,-3.51,-2.19,-2.18,-2.18
258.00,1.33,3.50,1.33,3.49,-3.49,-3.46,-2.16,-2.16,-2.17
260.58,1.30,3.45,1.29,3.44,-3.43,-3.41,-2.14,-2.14,-2.15
263.19,1.25,3.38,1.25,3.38,-3.38,-3.36,-2.13,-2.12,-2.13
265.82,1.21,3.32,1.21,3.32,-3.31,-3.31,-2.11,-2.11,-2.11
268.48,1.17,3.26,1.16,3.25,-3.25,-3.25,-2.09,-2.09,-2.09
271.16,1.12,3.19,1.12,3.19,-3.19,-3.20,-2.08,-2.07,-2.07
273.87,1.08,3.13,1.08,3.13,-3.13,-3.15,-2.05,-2.05,-2.05
276.61,1.05,3.08,1.04,3.07,-3.07,-3.09,-2.03,-2.03,-2.03
279.38,1.01,3.02,1.01,3.01,-3.01,-3.04,-2.01,-2.01,-2.01
282.17,0.97,2.96,0.97,2.96,-2.96,-2.98,-1.99,-1.99,-1.99
284.99,0.94,2.91,0.94,2.90,-2.91,-2.93,-1.97,-1.97,-1.97
287.84,0.91,2.86,0.90,2.85,-2.86,-2.87,-1.95,-1.95,-1.95
290.72,0.88,2.81,0.88,2.81,-2.81,-2.82,-1.93,-1.93,-1.93
293.63,0.85,2.76,0.85,2.76,-2.76,-2.77,-1.91,-1.91,-1.91
296.57,0.84,2.73,0.83,2.72,-2.71,-2.71,-1.87,-1.88,-1.89
299.53,0.80,2.67,0.79,2.66,-2.66,-2.66,-1.86,-1.86,-1.87
302.53,0.76,2.61,0.76,2.61,-2.60,-2.61,-1.85,-1.84,-1.85
305.55,0.73,2.55,0.73,2.55,-2.55,-2.55,-1.82,-1.82,-1.82
308.61,0.71,2.51,0.70,2.49,-2.50,-2.50,-1.79,-1.80,-1.80
311.69,0.67,2.44,0.67,2.44,-2.44,-2.45,-1.77,-1.77,-1.77
314.81,0.64,2.38,0.64,2.38,-2.38,-2.40,-1.75,-1.74,-1.74
317.96,0.61,2.33,0.61,2.32,-2.33,-2.35,-1.72,-1.72,-1.72
321.14,0.58,2.28,0.58,2.27,-2.27,-2.30,-1.70,-1.70,-1.70
324.35,0.55,2.23,0.55,2.23,-2.22,-2.25,-1.68,-1.68,-1.68
327.59,0.52,2.18,0.51,2.17,-2.18,-2.20,-1.66,-1.66,-1.66
330.87,0.49,2.13,0.49,2.13,-2.13,-2.16,-1.64,-1.64,-1.64
334.18,0.46,2.08,0.46,2.08,-2.08,-2.11,-1.63,-1.62,-1.62
337.52,0.45,2.05,0.44,2.04,-2.04,-2.06,-1.59,-1.60,-1.60
340.90,0.41,1.99,0.42,1.99,-1.99,-2.01,-1.59,-1.58,-1.58
344.30,0.41,1.97,0.39,1.95,-1.95,-1.97,-1.54,-1.55,-1.56
347.75,0.36,1.90,0.37,1.91,-1.91,-1.92,-1.55,-1.53,-1.54
351.23,0.36,1.88,0.34,1.86,-1.86,-1.88,-1.50,-1.52,-1.52
354.74,0.32,1.82,0.32,1.82,-1.82,-1.83,-1.50,-1.50,-1.50
358.28,0.28,1.77,0.29,1.77,-1.77,-1.79,-1.50,-1.48,-1.49
361.87,0.27,1.74,0.26,1.72,-1.73,-1.75,-1.46,-1.47,-1.47
365.49,0.23,1.68,0.23,1.68,-1.69,-1.70,-1.46,-1.45,-1.45
369.14,0.21,1.65,0.21,1.64,-1.64,-1.66,-1.44,-1.44,-1.44
372.83,0.19,1.61,0.18,1.60,-1.60,-1.62,-1.42,-1.42,-1.42
376.56,0.15,1.56,0.16,1.56,-1.56,-1.58,-1.42,-1.41,-1.41
380.33,0.15,1.54,0.14,1.53,-1.53,-1.54,-1.38,-1.39,-1.39
384.13,0.11,1.49,0.11,1.49,-1.49,-1.50,-1.38,-1.38,-1.38
387.97,0.10,1.47,0.09,1.46,-1.46,-1.46,-1.36,-1.36,-1.37
391.85,0.06,1.42,0.07,1.42,-1.42,-1.42,-1.36,-1.36,-1.36
395.77,0.06,1.40,0.05,1.39,-1.39,-1.38,-1.33,-1.34,-1.34
399.73,0.02,1.35,0.02,1.35,-1.35,-1.35,-1.34,-1.33,-1.33
403.72,0.02,1.34,0.00,1.32,-1.32,-1.31,-1.31,-1.32,-1.32
407.76,-0.03,1.28,-0.02,1.29,-1.29,-1.27,-1.32,-1.31,-1.31
411.84,-0.03,1.27,-0.04,1.26,-1.26,-1.24,-1.29,-1.30,-1.30
415.96,-0.06,1.23,-0.06,1.23,-1.23,-1.20,-1.30,-1.29,-1.29
420.12,-0.07,1.21,-0.08,1.20,-1.20,-1.17,-1.28,-1.28,-1.28
424.32,-0.09,1.18,-0.09,1.18,-1.17,-1.13,-1.27,-1.26,-1.27
428.56,-0.11,1.15,-0.11,1.15,-1.14,-1.10,-1.26,-1.25,-1.26
432.85,-0.11,1.14,-0.13,1.12,-1.11,-1.07,-1.23,-1.24,-1.25
437.18,-0.16,1.08,-0.15,1.09,-1.09,-1.04,-1.25,-1.23,-1.24
441.55,-0.16,1.06,-0.17,1.05,-1.06,-1.00,-1.22,-1.23,-1.22
445.96,-0.19,1.02,-0.19,1.02,-1.03,-0.97,-1.22,-1.21,-1.21
450.42,-0.20,1.00,-0.20,0.99,-1.00,-0.94,-1.20,-1.20,-1.20
454.93,-0.20,0.98,-0.22,0.96,-0.97,-0.91,-1.17,-1.19,-1.18
459.48,-0.24,0.93,-0.23,0.94,-0.94,-0.88,-1.18,-1.16,-1.17
464.07,-0.24,0.92,-0.24,0.91,-0.91,-0.85,-1.15,-1.15,-1.16
468.71,-0.24,0.90,-0.26,0.88,-0.88,-0.83,-1.12,-1.14,-1.14
473.40,-0.29,0.84,-0.28,0.85,-0.84,-0.80,-1.14,-1.12,-1.13
478.13,-0.29,0.82,-0.30,0.81,-0.81,-0.77,-1.10,-1.11,-1.11
482.91,-0.32,0.78,-0.32,0.77,-0.77,-0.74,-1.10,-1.10,-1.10
487.74,-0.33,0.75,-0.34,0.74,-0.74,-0.72,-1.07,-1.07,-1.08
492.62,-0.37,0.69,-0.36,0.70,-0.70,-0.69,-1.07,-1.06,-1.06
497.55,-0.37,0.68,-0.39,0.66,-0.66,-0.67,-1.03,-1.05,-1.05
502.52,-0.42,0.61,-0.41,0.62,-0.63,-0.64,-1.05,-1.04,-1.03
507.55,-0.42,0.60,-0.42,0.59,-0.59,-0.62,-1.02,-1.01,-1.02
512.62,-0.43,0.57,-0.44,0.56,-0.56,-0.59,-0.99,-1.00,-1.00
517.75,-0.44,0.54,-0.45,0.53,-0.53,-0.57,-0.98,-0.98,-0.98
522.93,-0.46,0.50,-0.46,0.50,-0.51,-0.55,-0.97,-0.96,-0.96
528.16,-0.46,0.49,-0.46,0.48,-0.48,-0.52,-0.95,-0.95,-0.95
533.44,-0.46,0.47,-0.47,0.46,-0.46,-0.50,-0.93,-0.93,-0.93
538.77,-0.46,0.45,-0.46,0.45,-0.45,-0.48,-0.91,-0.91,-0.91
544.16,-0.46,0.43,-0.46,0.43,-0.43,-0.46,-0.89,-0.89,-0.89
549.60,-0.46,0.41,-0.46,0.41,-0.41,-0.44,-0.87,-0.87,-0.87
555.10,-0.46,0.40,-0.46,0.39,-0.39,-0.42,-0.85,-0.85,-0.86
560.65,-0.46,0.38,-0.46,0.38,-0.37,-0.39,-0.83,-0.83,-0.84
566.25,-0.46,0.36,-0.46,0.36,-0.35,-0.37,-0.81,-0.81,-0.82
571.92,-0.46,0.35,-0.48,0.33,-0.33,-0.35,-0.79,-0.80,-0.81
577.64,-0.50,0.30,-0.49,0.31,-0.31,-0.33,-0.81,-0.79,-0.80
583.41,-0.50,0.28,-0.50,0.28,-0.28,-0.31,-0.79,-0.78,-0.78
589.25,-0.50,0.27,-0.51,0.25,-0.26,-0.29,-0.77,-0.78,-0.77
595.14,-0.51,0.24,-0.52,0.24,-0.24,-0.27,-0.75,-0.76,-0.75
601.09,-0.53,0.21,-0.52,0.22,-0.22,-0.25,-0.76,-0.74,-0.74
607.10,-0.50,0.22,-0.51,0.20,-0.20,-0.23,-0.71,-0.72,-0.72
613.17,-0.50,0.20,-0.51,0.19,-0.19,-0.21,-0.69,-0.69,-0.70
619.30,-0.50,0.18,-0.50,0.18,-0.17,-0.19,-0.68,-0.67,-0.68
625.50,-0.50,0.16,-0.50,0.16,-0.16,-0.17,-0.66,-0.66,-0.66
631.75,-0.50,0.15,-0.50,0.14,-0.14,-0.15,-0.64,-0.64,-0.65
638.07,-0.50,0.13,-0.50,0.13,-0.13,-0.13,-0.63,-0.63,-0.63
