frequency,raw,error,smoothed,error_smoothed,equalization,parametric_eq,equalized_raw,equalized_smoothed,target
20.00,-7.70,-10.89,-7.70,-10.89,10.89,10.87,3.19,3.19,3.19
20.20,-7.67,-10.89,-7.67,-10.89,10.89,10.85,3.22,3.22,3.22
20.40,-7.64,-10.89,-7.63,-10.88,10.88,10.83,3.24,3.25,3.25
20.61,-7.58,-10.85,-7.59,-10.87,10.86,10.81,3.28,3.27,3.27
20.81,-7.55,-10.85,-7.55,-10.85,10.85,10.79,3.30,3.30,3.30
21.02,-7.52,-10.85,-7.51,-10.83,10.83,10.77,3.31,3.32,3.33
21.23,-7.47,-10.81,-7.48,-10.82,10.81,10.75,3.34,3.33,3.34
21.44,-7.44,-10.79,-7.44,-10.78,10.78,10.72,3.34,3.35,3.35
21.66,-7.39,-10.75,-7.40,-10.75,10.75,10.70,3.36,3.36,3.36
21.87,-7.36,-10.72,-7.36,-10.72,10.72,10.68,3.36,3.36,3.36
22.09,-7.32,-10.69,-7.32,-10.68,10.69,10.65,3.37,3.37,3.37
22.31,-7.28,-10.65,-7.28,-10.65,10.65,10.63,3.37,3.37,3.37
22.54,-7.25,-10.62,-7.25,-10.61,10.61,10.61,3.36,3.37,3.37
22.76,-7.21,-10.58,-7.21,-10.57,10.58,10.58,3.37,3.37,3.37
22.99,-7.17,-10.53,-7.17,-10.54,10.54,10.55,3.37,3.37,3.36
23.22,-7.14,-10.50,-7.14,-10.50,10.50,10.53,3.36,3.36,3.36
23.45,-7.11,-10.47,-7.11,-10.47,10.47,10.50,3.36,3.36,3.36
23.69,-7.08,-10.44,-7.08,-10.43,10.43,10.47,3.35,3.36,3.36
23.92,-7.04,-10.40,-7.04,-10.40,10.40,10.44,3.36,3.36,3.36
24.16,-7.00,-10.36,-7.01,-10.36,10.36,10.41,3.36,3.36,3.36
24.40,-6.98,-10.34,-6.97,-10.33,10.33,10.38,3.35,3.36,3.36
24.65,-6.94,-10.29,-6.94,-10.29,10.30,10.35,3.35,3.35,3.35
24.89,-6.91,-10.26,-6.91,-10.26,10.26,10.32,3.35,3.35,3.35
25.14,-6.88,-10.23,-6.88,-10.23,10.23,10.29,3.35,3.35,3.35
25.39,-6.85,-10.20,-6.85,-10.20,10.20,10.26,3.35,3.35,3.35
25.65,-6.82,-10.17,-6.82,-10.16,10.16,10.23,3.34,3.34,3.35
25.91,-6.79,-10.13,-6.79,-10.13,10.13,10.19,3.34,3.34,3.34
26.16,-6.76,-10.10,-6.76,-10.10,10.10,10.16,3.34,3.34,3.34
26.43,-6.73,-10.07,-6.73,-10.07,10.07,10.12,3.34,3.34,3.34
26.69,-6.70,-10.04,-6.70,-10.04,10.04,10.09,3.34,3.34,3.34
26.96,-6.67,-10.01,-6.67,-10.01,10.00,10.05,3.33,3.33,3.34
27.23,-6.64,-9.97,-6.64,-9.97,9.97,10.02,3.33,3.33,3.33
27.50,-6.61,-9.94,-6.61,-9.94,9.94,9.98,3.33,3.32,3.33
27.77,-6.59,-9.91,-6.58,-9.90,9.90,9.94,3.31,3.32,3.32
28.05,-6.55,-9.87,-6.55,-9.87,9.87,9.91,3.32,3.32,3.32
28.33,-6.52,-9.83,-6.52,-9.84,9.84,9.87,3.32,3.31,3.31
28.62,-6.50,-9.81,-6.49,-9.80,9.80,9.83,3.30,3.31,3.31
28.90,-6.46,-9.77,-6.46,-9.77,9.77,9.79,3.31,3.30,3.31
29.19,-6.43,-9.73,-6.43,-9.73,9.74,9.75,3.31,3.30,3.30
29.48,-6.41,-9.71,-6.40,-9.70,9.70,9.71,3.29,3.30,3.30
29.78,-6.37,-9.66,-6.38,-9.67,9.67,9.67,3.30,3.29,3.29
30.08,-6.36,-9.65,-6.35,-9.64,9.64,9.63,3.28,3.28,3.29
30.38,-6.33,-9.61,-6.32,-9.60,9.60,9.59,3.27,3.28,3.28
30.68,-6.28,-9.56,-6.30,-9.57,9.57,9.55,3.29,3.27,3.28
30.99,-6.27,-9.54,-6.26,-9.53,9.53,9.51,3.26,3.27,3.27
31.30,-6.24,-9.50,-6.23,-9.50,9.50,9.47,3.26,3.26,3.26
31.61,-6.20,-9.46,-6.21,-9.46,9.46,9.43,3.26,3.25,3.26
31.93,-6.18,-9.43,-6.18,-9.42,9.42,9.39,3.24,3.25,3.25
32.24,-6.15,-9.39,-6.15,-9.39,9.39,9.35,3.24,3.24,3.24
32.57,-6.11,-9.35,-6.12,-9.35,9.35,9.31,3.24,3.23,3.24
32.89,-6.09,-9.32,-6.09,-9.31,9.32,9.27,3.23,3.23,3.23
33.22,-6.06,-9.28,-6.05,-9.28,9.28,9.23,3.22,3.22,3.22
33.55,-6.02,-9.24,-6.03,-9.24,9.24,9.19,3.22,3.21,3.22
33.89,-6.00,-9.21,-6.00,-9.21,9.21,9.15,3.21,3.21,3.21
34.23,-5.98,-9.18,-5.97,-9.17,9.17,9.11,3.19,3.20,3.20
34.57,-5.94,-9.13,-5.95,-9.13,9.13,9.07,3.19,3.19,3.19
34.92,-5.91,-9.09,-5.91,-9.09,9.09,9.04,3.18,3.18,3.18
35.27,-5.89,-9.06,-5.88,-9.05,9.05,9.00,3.16,3.17,3.17
35.62,-5.85,-9.01,-5.86,-9.02,9.02,8.97,3.17,3.16,3.16
35.97,-5.84,-8.99,-5.83,-8.98,8.98,8.93,3.14,3.15,3.15
36.33,-5.81,-8.95,-5.80,-8.94,8.94,8.90,3.13,3.14,3.14
36.70,-5.76,-8.89,-5.78,-8.90,8.91,8.87,3.15,3.13,3.13
37.06,-5.76,-8.88,-5.75,-8.87,8.87,8.84,3.11,3.12,3.12
37.43,-5.72,-8.83,-5.73,-8.83,8.84,8.81,3.12,3.11,3.11
37.81,-5.71,-8.81,-5.71,-8.81,8.80,8.78,3.09,3.09,3.10
38.19,-5.68,-8.77,-5.68,-8.77,8.77,8.75,3.09,3.09,3.09
38.57,-5.66,-8.74,-5.66,-8.74,8.73,8.72,3.07,3.07,3.08
38.95,-5.63,-8.70,-5.64,-8.70,8.70,8.69,3.07,3.06,3.07
39.34,-5.62,-8.67,-5.61,-8.67,8.67,8.67,3.05,3.05,3.05
39.74,-5.59,-8.63,-5.59,-8.63,8.63,8.64,3.04,3.04,3.04
40.14,-5.57,-8.60,-5.58,-8.60,8.60,8.62,3.03,3.03,3.03
40.54,-5.55,-8.57,-5.55,-8.57,8.57,8.59,3.02,3.02,3.02
40.94,-5.55,-8.56,-5.53,-8.54,8.54,8.57,2.99,3.01,3.01
41.35,-5.50,-8.50,-5.52,-8.52,8.52,8.55,3.02,3.00,3.00
41.76,-5.50,-8.49,-5.50,-8.49,8.49,8.53,2.99,2.99,2.99
42.18,-5.50,-8.48,-5.48,-8.46,8.47,8.51,2.97,2.98,2.98
42.60,-5.47,-8.44,-5.48,-8.45,8.44,8.48,2.97,2.97,2.97
43.03,-5.46,-8.42,-5.46,-8.42,8.42,8.46,2.96,2.95,2.96
43.46,-5.46,-8.40,-5.46,-8.40,8.40,8.44,2.94,2.94,2.94
43.90,-5.46,-8.38,-5.46,-8.38,8.38,8.42,2.92,2.92,2.92
44.33,-5.46,-8.36,-5.46,-8.36,8.36,8.40,2.90,2.90,2.90
44.78,-5.46,-8.34,-5.46,-8.34,8.34,8.38,2.88,2.88,2.88
45.23,-5.46,-8.32,-5.46,-8.32,8.32,8.36,2.86,2.86,2.86
45.68,-5.46,-8.31,-5.46,-8.31,8.31,8.34,2.85,2.85,2.85
46.13,-5.46,-8.29,-5.46,-8.29,8.29,8.32,2.83,2.83,2.83
46.60,-5.46,-8.28,-5.46,-8.27,8.28,8.30,2.82,2.82,2.82
47.06,-5.46,-8.26,-5.46,-8.26,8.26,8.28,2.80,2.80,2.80
47.53,-5.46,-8.24,-5.46,-8.24,8.24,8.26,2.78,2.78,2.78
48.01,-5.46,-8.23,-5.46,-8.22,8.22,8.23,2.76,2.76,2.77
48.49,-5.46,-8.20,-5.46,-8.20,8.19,8.21,2.73,2.73,2.74
48.97,-5.46,-8.17,-5.46,-8.17,8.17,8.18,2.71,2.71,2.71
49.46,-5.46,-8.14,-5.46,-8.14,8.14,8.16,2.68,2.68,2.68
49.96,-5.46,-8.11,-5.46,-8.11,8.12,8.13,2.66,2.66,2.65
50.46,-5.46,-8.09,-5.46,-8.09,8.09,8.10,2.63,2.63,2.63
50.96,-5.46,-8.07,-5.46,-8.06,8.07,8.08,2.61,2.61,2.61
51.47,-5.46,-8.04,-5.46,-8.04,8.04,8.05,2.58,2.58,2.58
51.99,-5.46,-8.02,-5.46,-8.02,8.01,8.01,2.55,2.55,2.56
52.51,-5.46,-8.00,-5.45,-7.99,7.98,7.98,2.52,2.53,2.54
53.03,-5.44,-7.96,-5.44,-7.96,7.96,7.95,2.52,2.52,2.52
53.56,-5.42,-7.91,-5.43,-7.92,7.93,7.91,2.51,2.50,2.49
54.10,-5.42,-7.89,-5.42,-7.89,7.89,7.88,2.47,2.47,2.47
54.64,-5.42,-7.86,-5.42,-7.86,7.86,7.84,2.44,2.44,2.44
55.18,-5.42,-7.84,-5.42,-7.83,7.83,7.80,2.41,2.41,2.42
55.74,-5.42,-7.81,-5.40,-7.79,7.79,7.76,2.37,2.39,2.39
56.29,-5.37,-7.74,-5.39,-7.76,7.76,7.72,2.39,2.37,2.37
56.86,-5.37,-7.72,-5.37,-7.72,7.73,7.68,2.36,2.35,2.35
57.42,-5.37,-7.69,-5.36,-7.68,7.69,7.63,2.32,2.33,2.32
58.00,-5.35,-7.65,-5.35,-7.65,7.65,7.59,2.30,2.30,2.30
58.58,-5.33,-7.61,-5.34,-7.62,7.61,7.54,2.28,2.28,2.28
59.16,-5.33,-7.59,-5.32,-7.58,7.57,7.49,2.24,2.25,2.26
59.76,-5.29,-7.53,-5.30,-7.53,7.52,7.44,2.23,2.23,2.24
60.35,-5.27,-7.48,-5.27,-7.48,7.47,7.39,2.20,2.20,2.21
60.96,-5.24,-7.42,-5.24,-7.42,7.41,7.34,2.17,2.17,2.18
61.57,-5.21,-7.35,-5.21,-7.35,7.35,7.28,2.14,2.14,2.14
62.18,-5.18,-7.29,-5.17,-7.28,7.29,7.23,2.11,2.11,2.11
62.80,-5.13,-7.21,-5.14,-7.21,7.22,7.17,2.09,2.08,2.08
63.43,-5.09,-7.14,-5.09,-7.14,7.15,7.11,2.06,2.06,2.05
64.07,-5.06,-7.08,-5.05,-7.08,7.08,7.05,2.02,2.03,2.02
64.71,-5.01,-7.01,-5.01,-7.01,7.01,6.99,2.00,1.99,2.00
65.35,-4.98,-6.95,-4.98,-6.94,6.94,6.92,1.96,1.96,1.97
66.01,-4.93,-6.87,-4.93,-6.87,6.87,6.86,1.94,1.94,1.94
66.67,-4.90,-6.81,-4.90,-6.80,6.80,6.79,1.90,1.91,1.91
67.33,-4.85,-6.73,-4.85,-6.73,6.74,6.73,1.89,1.88,1.88
68.01,-4.82,-6.67,-4.82,-6.66,6.67,6.66,1.85,1.85,1.85
68.69,-4.77,-6.59,-4.77,-6.59,6.60,6.59,1.83,1.82,1.82
69.37,-4.74,-6.53,-4.74,-6.53,6.52,6.52,1.78,1.79,1.79
70.07,-4.69,-6.45,-4.70,-6.46,6.45,6.45,1.76,1.75,1.76
70.77,-4.66,-6.39,-4.65,-6.38,6.37,6.38,1.71,1.72,1.73
71.48,-4.60,-6.30,-4.60,-6.29,6.29,6.30,1.69,1.69,1.70
72.19,-4.54,-6.20,-4.54,-6.20,6.21,6.23,1.67,1.66,1.66
72.91,-4.48,-6.11,-4.49,-6.11,6.12,6.15,1.64,1.64,1.63
73.64,-4.44,-6.03,-4.44,-6.03,6.04,6.08,1.60,1.60,1.59
74.38,-4.40,-5.96,-4.39,-5.95,5.95,6.00,1.55,1.56,1.56
75.12,-4.35,-5.87,-4.35,-5.87,5.87,5.92,1.52,1.52,1.52
75.87,-4.30,-5.79,-4.30,-5.79,5.79,5.85,1.49,1.49,1.49
76.63,-4.26,-5.72,-4.26,-5.71,5.71,5.77,1.45,1.45,1.46
77.40,-4.21,-5.64,-4.21,-5.63,5.63,5.69,1.42,1.42,1.43
78.17,-4.16,-5.55,-4.16,-5.55,5.55,5.61,1.39,1.39,1.39
78.95,-4.11,-5.47,-4.12,-5.47,5.48,5.53,1.37,1.36,1.36
79.74,-4.08,-5.41,-4.07,-5.40,5.40,5.45,1.32,1.33,1.33
80.54,-4.03,-5.32,-4.03,-5.32,5.32,5.36,1.29,1.29,1.29
81.35,-3.99,-5.25,-3.99,-5.25,5.25,5.28,1.26,1.25,1.26
82.16,-3.95,-5.17,-3.95,-5.17,5.17,5.20,1.22,1.22,1.22
82.98,-3.92,-5.11,-3.91,-5.10,5.09,5.12,1.17,1.18,1.19
83.81,-3.87,-5.02,-3.87,-5.02,5.02,5.04,1.15,1.14,1.15
84.65,-3.82,-4.93,-3.83,-4.94,4.94,4.95,1.12,1.11,1.11
85.50,-3.79,-4.87,-3.78,-4.85,4.86,4.87,1.07,1.08,1.08
86.35,-3.73,-4.77,-3.74,-4.78,4.78,4.79,1.05,1.04,1.04
87.22,-3.70,-4.70,-3.70,-4.70,4.70,4.71,1.00,1.00,1.00
88.09,-3.66,-4.62,-3.66,-4.62,4.62,4.62,0.96,0.96,0.96
88.97,-3.62,-4.54,-3.62,-4.54,4.54,4.54,0.92,0.91,0.92
89.86,-3.59,-4.47,-3.59,-4.46,4.46,4.46,0.87,0.87,0.88
90.76,-3.55,-4.38,-3.55,-4.38,4.38,4.38,0.83,0.84,0.83
91.66,-3.51,-4.30,-3.52,-4.30,4.31,4.30,0.80,0.79,0.79
92.58,-3.48,-4.22,-3.49,-4.23,4.23,4.22,0.75,0.74,0.74
93.51,-3.47,-4.17,-3.45,-4.15,4.15,4.14,0.68,0.70,0.70
94.44,-3.42,-4.08,-3.43,-4.08,4.08,4.06,0.66,0.65,0.66
95.39,-3.39,-4.00,-3.40,-4.01,4.00,3.98,0.61,0.60,0.61
96.34,-3.38,-3.94,-3.37,-3.93,3.93,3.91,0.55,0.56,0.56
97.30,-3.34,-3.85,-3.35,-3.86,3.85,3.83,0.51,0.51,0.51
98.28,-3.32,-3.78,-3.32,-3.78,3.78,3.75,0.46,0.46,0.46
99.26,-3.29,-3.71,-3.29,-3.70,3.70,3.68,0.41,0.42,0.42
100.25,-3.25,-3.62,-3.26,-3.63,3.63,3.60,0.38,0.37,0.37
101.25,-3.25,-3.57,-3.24,-3.56,3.56,3.53,0.31,0.32,0.32
102.27,-3.21,-3.48,-3.22,-3.48,3.49,3.46,0.28,0.27,0.27
103.29,-3.20,-3.42,-3.19,-3.41,3.41,3.39,0.21,0.22,0.22
104.32,-3.16,-3.34,-3.16,-3.34,3.34,3.32,0.18,0.18,0.18
105.37,-3.14,-3.27,-3.14,-3.27,3.27,3.25,0.13,0.13,0.13
106.42,-3.12,-3.20,-3.12,-3.20,3.20,3.18,0.08,0.08,0.08
107.48,-3.10,-3.13,-3.10,-3.13,3.13,3.11,0.03,0.03,0.03
108.56,-3.08,-3.06,-3.07,-3.05,3.05,3.04,-0.03,-0.02,-0.02
109.64,-3.04,-2.97,-3.05,-2.98,2.98,2.97,-0.06,-0.07,-0.07
110.74,-3.03,-2.91,-3.03,-2.90,2.90,2.91,-0.13,-0.12,-0.12
111.85,-3.00,-2.83,-3.00,-2.83,2.83,2.84,-0.17,-0.17,-0.17
112.97,-2.99,-2.76,-2.99,-2.76,2.75,2.77,-0.24,-0.24,-0.23
114.10,-2.95,-2.67,-2.96,-2.68,2.67,2.70,-0.28,-0.29,-0.28
115.24,-2.95,-2.61,-2.94,-2.60,2.60,2.62,-0.35,-0.34,-0.34
116.39,-2.90,-2.51,-2.91,-2.51,2.52,2.55,-0.38,-0.39,-0.39
117.55,-2.89,-2.44,-2.89,-2.44,2.44,2.48,-0.45,-0.44,-0.45
118.73,-2.86,-2.36,-2.86,-2.36,2.37,2.40,-0.49,-0.49,-0.50
119.92,-2.86,-2.31,-2.85,-2.30,2.30,2.33,-0.56,-0.56,-0.55
121.12,-2.82,-2.22,-2.83,-2.23,2.22,2.25,-0.60,-0.61,-0.60
122.33,-2.82,-2.17,-2.81,-2.16,2.15,2.18,-0.67,-0.66,-0.65
123.55,-2.77,-2.07,-2.78,-2.08,2.08,2.10,-0.69,-0.70,-0.70
124.79,-2.77,-2.02,-2.76,-2.01,2.01,2.02,-0.76,-0.75,-0.75
126.03,-2.73,-1.93,-2.74,-1.94,1.94,1.95,-0.79,-0.80,-0.80
127.29,-2.73,-1.88,-2.73,-1.87,1.87,1.87,-0.86,-0.86,-0.85
128.57,-2.73,-1.82,-2.72,-1.81,1.80,1.80,-0.93,-0.91,-0.91
129.85,-2.69,-1.73,-2.70,-1.74,1.73,1.72,-0.96,-0.97,-0.96
131.15,-2.69,-1.68,-2.68,-1.67,1.67,1.65,-1.02,-1.01,-1.01
132.46,-2.64,-1.58,-2.65,-1.59,1.60,1.58,-1.04,-1.05,-1.06
133.79,-2.64,-1.54,-2.63,-1.53,1.53,1.51,-1.11,-1.10,-1.10
135.12,-2.61,-1.46,-2.61,-1.46,1.46,1.44,-1.15,-1.15,-1.15
136.48,-2.60,-1.41,-2.60,-1.40,1.40,1.37,-1.20,-1.20,-1.19
137.84,-2.57,-1.33,-2.57,-1.33,1.33,1.31,-1.24,-1.24,-1.24
139.22,-2.56,-1.27,-2.56,-1.27,1.27,1.24,-1.29,-1.29,-1.29
140.61,-2.53,-1.20,-2.53,-1.20,1.20,1.18,-1.33,-1.33,-1.33
142.02,-2.51,-1.15,-2.51,-1.14,1.14,1.12,-1.37,-1.37,-1.36
143.44,-2.47,-1.07,-2.48,-1.08,1.07,1.06,-1.40,-1.41,-1.40
144.87,-2.46,-1.02,-2.45,-1.01,1.01,1.00,-1.45,-1.45,-1.44
146.32,-2.43,-0.95,-2.42,-0.95,0.94,0.94,-1.49,-1.48,-1.48
147.78,-2.38,-0.87,-2.40,-0.88,0.88,0.88,-1.50,-1.51,-1.51
149.26,-2.38,-0.83,-2.37,-0.81,0.82,0.82,-1.56,-1.54,-1.55
150.75,-2.34,-0.75,-2.35,-0.76,0.77,0.77,-1.57,-1.58,-1.59
152.26,-2.34,-0.71,-2.34,-0.71,0.72,0.72,-1.62,-1.62,-1.63
153.78,-2.34,-0.67,-2.34,-0.66,0.67,0.66,-1.67,-1.66,-1.67
155.32,-2.34,-0.63,-2.34,-0.63,0.63,0.61,-1.71,-1.72,-1.71
156.88,-2.34,-0.59,-2.34,-0.59,0.58,0.56,-1.76,-1.76,-1.75
158.44,-2.34,-0.55,-2.34,-0.54,0.53,0.51,-1.81,-1.80,-1.79
160.03,-2.33,-0.50,-2.33,-0.50,0.48,0.46,-1.85,-1.84,-1.83
161.63,-2.30,-0.43,-2.31,-0.44,0.43,0.41,-1.87,-1.87,-1.87
163.24,-2.30,-0.39,-2.28,-0.38,0.38,0.36,-1.92,-1.90,-1.91
164.88,-2.25,-0.31,-2.27,-0.32,0.33,0.31,-1.92,-1.94,-1.94
166.53,-2.25,-0.27,-2.25,-0.27,0.27,0.27,-1.98,-1.98,-1.98
168.19,-2.25,-0.23,-2.23,-0.21,0.22,0.22,-2.03,-2.02,-2.02
169.87,-2.21,-0.15,-2.23,-0.16,0.16,0.17,-2.05,-2.06,-2.06
171.57,-2.21,-0.11,-2.21,-0.11,0.11,0.12,-2.10,-2.10,-2.10
173.29,-2.20,-0.07,-2.19,-0.06,0.06,0.07,-2.14,-2.14,-2.13
175.02,-2.17,0.00,-2.18,-0.01,0.00,0.02,-2.17,-2.18,-2.17
176.77,-2.17,0.04,-2.16,0.05,-0.05,-0.02,-2.22,-2.21,-2.21
178.54,-2.15,0.10,-2.14,0.11,-0.10,-0.07,-2.25,-2.25,-2.25
180.32,-2.12,0.17,-2.13,0.15,-0.15,-0.12,-2.27,-2.29,-2.29
182.13,-2.12,0.20,-2.12,0.21,-0.20,-0.18,-2.32,-2.32,-2.32
183.95,-2.12,0.24,-2.10,0.26,-0.25,-0.23,-2.37,-2.36,-2.36
185.79,-2.08,0.31,-2.09,0.30,-0.30,-0.28,-2.38,-2.39,-2.39
187.65,-2.08,0.35,-2.09,0.34,-0.34,-0.33,-2.42,-2.43,-2.43
189.52,-2.08,0.38,-2.07,0.39,-0.39,-0.38,-2.47,-2.46,-2.46
191.42,-2.08,0.41,-2.07,0.43,-0.43,-0.43,-2.51,-2.50,-2.49
193.33,-2.04,0.48,-2.06,0.47,-0.47,-0.48,-2.51,-2.53,-2.52
195.27,-2.04,0.51,-2.04,0.51,-0.51,-0.53,-2.55,-2.56,-2.55
197.22,-2.04,0.54,-2.03,0.56,-0.55,-0.57,-2.59,-2.58,-2.58
199.19,-2.01,0.60,-2.01,0.60,-0.59,-0.62,-2.60,-2.60,-2.61
201.18,-1.99,0.64,-2.00,0.63,-0.63,-0.65,-2.62,-2.63,-2.63
203.19,-1.99,0.66,-1.99,0.67,-0.66,-0.68,-2.65,-2.65,-2.65
205.23,-1.99,0.68,-1.97,0.69,-0.70,-0.71,-2.69,-2.67,-2.67
207.28,-1.95,0.73,-1.97,0.72,-0.73,-0.73,-2.68,-2.69,-2.68
209.35,-1.95,0.75,-1.95,0.75,-0.75,-0.75,-2.70,-2.70,-2.70
211.44,-1.95,0.77,-1.93,0.78,-0.78,-0.77,-2.73,-2.71,-2.72
213.56,-1.91,0.82,-1.92,0.81,-0.80,-0.79,-2.71,-2.73,-2.73
215.69,-1.91,0.82,-1.92,0.82,-0.83,-0.80,-2.74,-2.74,-2.73
217.85,-1.91,0.83,-1.90,0.84,-0.84,-0.82,-2.75,-2.75,-2.74
220.03,-1.91,0.84,-1.89,0.86,-0.86,-0.84,-2.77,-2.76,-2.75
222.23,-1.86,0.90,-1.88,0.88,-0.88,-0.85,-2.74,-2.75,-2.76
224.45,-1.86,0.90,-1.86,0.90,-0.89,-0.87,-2.75,-2.75,-2.76
226.70,-1.86,0.90,-1.86,0.90,-0.90,-0.89,-2.76,-2.76,-2.76
228.96,-1.86,0.90,-1.86,0.90,-0.91,-0.91,-2.77,-2.77,-2.76
231.25,-1.86,0.89,-1.85,0.91,-0.91,-0.92,-2.77,-2.76,-2.75
233.57,-1.82,0.93,-1.83,0.92,-0.92,-0.94,-2.74,-2.75,-2.75
235.90,-1.82,0.93,-1.82,0.93,-0.92,-0.94,-2.74,-2.74,-2.75
238.26,-1.82,0.92,-1.82,0.93,-0.92,-0.95,-2.74,-2.74,-2.74
240.64,-1.82,0.91,-1.82,0.91,-0.92,-0.95,-2.74,-2.74,-2.73
243.05,-1.82,0.90,-1.82,0.91,-0.92,-0.95,-2.74,-2.73,-2.72
245.48,-1.81,0.90,-1.80,0.91,-0.91,-0.94,-2.72,-2.71,-2.71
247.93,-1.78,0.92,-1.79,0.91,-0.90,-0.93,-2.68,-2.69,-2.70
250.41,-1.78,0.91,-1.78,0.91,-0.90,-0.92,-2.68,-2.68,-2.69
252.92,-1.78,0.89,-1.78,0.90,-0.89,-0.90,-2.67,-2.67,-2.67
255.45,-1.78,0.87,-1.78,0.87,-0.88,-0.89,-2.66,-2.67,-2.65
258.00,-1.78,0.86,-1.78,0.86,-0.87,-0.87,-2.65,-2.65,-2.64
260.58,-1.78,0.84,-1.76,0.86,-0.86,-0.85,-2.64,-2.63,-2.62
263.19,-1.73,0.87,-1.75,0.86,-0.85,-0.84,-2.58,-2.60,-2.60
265.82,-1.73,0.85,-1.73,0.85,-0.84,-0.82,-2.57,-2.57,-2.58
268.48,-1.73,0.83,-1.73,0.83,-0.83,-0.81,-2.56,-2.55,-2.56
271.16,-1.73,0.81,-1.73,0.81,-0.82,-0.80,-2.55,-2.55,-2.54
273.87,-1.73,0.79,-1.72,0.80,-0.81,-0.79,-2.54,-2.53,-2.52
276.61,-1.71,0.79,-1.71,0.79,-0.79,-0.78,-2.50,-2.50,-2.50
279.38,-1.69,0.79,-1.70,0.78,-0.78,-0.78,-2.47,-2.48,-2.48
282.17,-1.69,0.77,-1.69,0.77,-0.77,-0.77,-2.46,-2.46,-2.46
284.99,-1.69,0.75,-1.69,0.76,-0.76,-0.77,-2.45,-2.44,-2.44
287.84,-1.69,0.73,-1.68,0.75,-0.75,-0.76,-2.44,-2.42,-2.42
290.72,-1.65,0.75,-1.66,0.74,-0.74,-0.76,-2.39,-2.40,-2.40
293.63,-1.65,0.73,-1.66,0.73,-0.73,-0.75,-2.38,-2.39,-2.38
296.57,-1.65,0.71,-1.64,0.72,-0.72,-0.74,-2.37,-2.36,-2.36
299.53,-1.65,0.69,-1.63,0.71,-0.71,-0.73,-2.36,-2.34,-2.34
302.53,-1.60,0.72,-1.62,0.70,-0.70,-0.72,-2.30,-2.31,-2.32
305.55,-1.60,0.69,-1.61,0.69,-0.68,-0.70,-2.28,-2.29,-2.29
308.61,-1.60,0.67,-1.59,0.68,-0.67,-0.69,-2.27,-2.26,-2.27
311.69,-1.60,0.64,-1.59,0.65,-0.66,-0.67,-2.26,-2.25,-2.24
314.81,-1.56,0.65,-1.58,0.64,-0.65,-0.66,-2.21,-2.22,-2.21
317.96,-1.56,0.63,-1.56,0.63,-0.64,-0.64,-2.20,-2.20,-2.19
321.14,-1.56,0.61,-1.54,0.63,-0.63,-0.62,-2.19,-2.17,-2.17
324.35,-1.52,0.63,-1.54,0.62,-0.62,-0.61,-2.14,-2.15,-2.15
327.59,-1.52,0.61,-1.52,0.61,-0.61,-0.59,-2.13,-2.13,-2.13
330.87,-1.52,0.59,-1.51,0.60,-0.60,-0.58,-2.12,-2.11,-2.11
334.18,-1.50,0.59,-1.50,0.60,-0.59,-0.57,-2.09,-2.09,-2.09
337.52,-1.47,0.60,-1.48,0.59,-0.59,-0.56,-2.06,-2.07,-2.07
340.90,-1.47,0.58,-1.47,0.58,-0.58,-0.55,-2.05,-2.05,-2.05
344.30,-1.47,0.56,-1.46,0.57,-0.57,-0.54,-2.04,-2.03,-2.03
347.75,-1.46,0.55,-1.45,0.56,-0.56,-0.53,-2.02,-2.02,-2.01
351.23,-1.43,0.56,-1.44,0.55,-0.55,-0.53,-1.98,-2.00,-1.99
354.74,-1.43,0.54,-1.43,0.54,-0.55,-0.52,-1.98,-1.98,-1.97
358.28,-1.43,0.53,-1.42,0.54,-0.54,-0.52,-1.97,-1.96,-1.96
361.87,-1.41,0.53,-1.41,0.53,-0.53,-0.52,-1.94,-1.94,-1.94
365.49,-1.39,0.53,-1.40,0.53,-0.52,-0.51,-1.91,-1.92,-1.92
369.14,-1.39,0.52,-1.39,0.52,-0.51,-0.51,-1.90,-1.90,-1.91
372.83,-1.39,0.50,-1.39,0.50,-0.51,-0.51,-1.90,-1.90,-1.89
376.56,-1.39,0.49,-1.39,0.49,-0.50,-0.51,-1.89,-1.89,-1.88
380.33,-1.39,0.47,-1.38,0.49,-0.50,-0.51,-1.89,-1.87,-1.86
384.13,-1.35,0.50,-1.36,0.49,-0.49,-0.51,-1.84,-1.85,-1.85
387.97,-1.34,0.50,-1.35,0.50,-0.49,-0.51,-1.83,-1.83,-1.84
391.85,-1.34,0.49,-1.34,0.49,-0.48,-0.50,-1.82,-1.82,-1.83
395.77,-1.34,0.47,-1.34,0.48,-0.47,-0.50,-1.81,-1.81,-1.81
399.73,-1.34,0.46,-1.34,0.46,-0.46,-0.49,-1.80,-1.80,-1.80
403.72,-1.34,0.45,-1.34,0.45,-0.46,-0.48,-1.80,-1.80,-1.79
407.76,-1.34,0.44,-1.34,0.44,-0.45,-0.47,-1.79,-1.79,-1.78
411.84,-1.34,0.43,-1.34,0.43,-0.43,-0.46,-1.77,-1.77,-1.77
415.96,-1.34,0.42,-1.34,0.42,-0.42,-0.45,-1.76,-1.76,-1.76
420.12,-1.34,0.41,-1.34,0.41,-0.41,-0.43,-1.75,-1.75,-1.75
424.32,-1.34,0.40,-1.34,0.40,-0.40,-0.41,-1.74,-1.74,-1.74
428.56,-1.34,0.39,-1.34,0.39,-0.39,-0.39,-1.73,-1.73,-1.73
432.85,-1.34,0.38,-1.34,0.38,-0.38,-0.37,-1.72,-1.71,-1.72
437.18,-1.34,0.37,-1.34,0.37,-0.36,-0.35,-1.70,-1.70,-1.71
441.55,-1.34,0.35,-1.35,0.35,-0.34,-0.33,-1.68,-1.69,-1.69
445.96,-1.37,0.31,-1.37,0.32,-0.32,-0.30,-1.69,-1.69,-1.68
450.42,-1.39,0.28,-1.38,0.29,-0.29,-0.28,-1.68,-1.67,-1.67
454.93,-1.39,0.26,-1.39,0.26,-0.27,-0.25,-1.66,-1.66,-1.65
459.48,-1.39,0.25,-1.40,0.24,-0.24,-0.23,-1.63,-1.64,-1.64
464.07,-1.42,0.21,-1.41,0.22,-0.21,-0.20,-1.63,-1.62,-1.63
468.71,-1.43,0.18,-1.43,0.19,-0.18,-0.18,-1.61,-1.61,-1.61
473.40,-1.43,0.17,-1.45,0.15,-0.16,-0.15,-1.59,-1.60,-1.60
478.13,-1.47,0.11,-1.46,0.13,-0.13,-0.13,-1.60,-1.59,-1.58
482.91,-1.47,0.10,-1.47,0.10,-0.11,-0.10,-1.58,-1.57,-1.57
487.74,-1.47,0.08,-1.47,0.08,-0.08,-0.08,-1.55,-1.56,-1.55
492.62,-1.47,0.06,-1.47,0.07,-0.06,-0.07,-1.53,-1.53,-1.53
497.55,-1.47,0.05,-1.47,0.05,-0.04,-0.05,-1.51,-1.51,-1.52
502.52,-1.47,0.03,-1.47,0.03,-0.03,-0.04,-1.50,-1.50,-1.50
507.55,-1.47,0.02,-1.47,0.02,-0.02,-0.04,-1.49,-1.49,-1.49
512.62,-1.47,0.00,-1.46,0.01,-0.02,-0.03,-1.49,-1.48,-1.47
517.75,-1.43,0.02,-1.44,0.01,-0.02,-0.03,-1.45,-1.46,-1.45
522.93,-1.41,0.02,-1.41,0.02,-0.03,-0.04,-1.44,-1.44,-1.43
528.16,-1.39,0.03,-1.38,0.04,-0.04,-0.04,-1.43,-1.42,-1.42
533.44,-1.34,0.06,-1.35,0.06,-0.05,-0.05,-1.39,-1.40,-1.40
538.77,-1.31,0.07,-1.31,0.07,-0.06,-0.06,-1.37,-1.38,-1.38
544.16,-1.28,0.08,-1.28,0.08,-0.08,-0.07,-1.36,-1.35,-1.36
549.60,-1.26,0.08,-1.26,0.09,-0.09,-0.08,-1.35,-1.34,-1.34
555.10,-1.22,0.11,-1.23,0.10,-0.10,-0.09,-1.32,-1.33,-1.33
560.65,-1.21,0.10,-1.20,0.11,-0.11,-0.10,-1.32,-1.31,-1.31
566.25,-1.17,0.12,-1.18,0.12,-0.12,-0.11,-1.29,-1.30,-1.29
571.92,-1.17,0.11,-1.16,0.12,-0.13,-0.11,-1.30,-1.29,-1.28
577.64,-1.13,0.14,-1.13,0.14,-0.14,-0.12,-1.27,-1.27,-1.27
583.41,-1.11,0.14,-1.11,0.14,-0.14,-0.13,-1.25,-1.25,-1.25
