frequency,raw,error,smoothed,error_smoothed,equalization,parametric_eq,equalized_raw,equalized_smoothed,target
20.00,-17.39,-21.22,-17.41,-21.23,21.27,19.26,3.88,3.87,3.83
20.20,-17.34,-21.15,-17.32,-21.12,21.12,19.24,3.78,3.81,3.81
20.40,-17.22,-21.00,-17.21,-21.00,20.98,19.22,3.76,3.76,3.78
20.61,-17.09,-20.86,-17.10,-20.86,20.83,19.19,3.73,3.73,3.76
20.81,-16.96,-20.69,-16.95,-20.69,20.67,19.17,3.72,3.72,3.74
21.02,-16.80,-20.52,-16.81,-20.53,20.52,19.14,3.72,3.71,3.72
21.23,-16.67,-20.37,-16.67,-20.37,20.37,19.11,3.70,3.70,3.70
21.44,-16.54,-20.21,-16.53,-20.21,20.22,19.08,3.68,3.68,3.67
21.66,-16.40,-20.06,-16.39,-20.05,20.05,19.05,3.65,3.66,3.66
21.87,-16.25,-19.88,-16.26,-19.89,19.89,19.01,3.64,3.64,3.63
22.09,-16.11,-19.72,-16.12,-19.73,19.73,18.98,3.62,3.61,3.61
22.31,-16.00,-19.59,-15.99,-19.58,19.58,18.94,3.58,3.59,3.59
22.54,-15.86,-19.43,-15.86,-19.43,19.43,18.90,3.56,3.57,3.57
22.76,-15.72,-19.27,-15.73,-19.28,19.27,18.85,3.55,3.55,3.55
22.99,-15.60,-19.13,-15.59,-19.13,19.12,18.81,3.52,3.53,3.53
23.22,-15.46,-18.97,-15.47,-18.98,18.98,18.76,3.51,3.51,3.51
23.45,-15.34,-18.84,-15.34,-18.83,18.83,18.71,3.49,3.49,3.50
23.69,-15.21,-18.68,-15.21,-18.68,18.68,18.65,3.47,3.47,3.47
23.92,-15.09,-18.54,-15.09,-18.54,18.54,18.59,3.45,3.45,3.45
24.16,-14.96,-18.39,-14.96,-18.40,18.40,18.52,3.44,3.44,3.43
24.40,-14.85,-18.26,-14.85,-18.26,18.27,18.45,3.42,3.42,3.42
24.65,-14.73,-18.13,-14.74,-18.13,18.13,18.37,3.40,3.40,3.40
24.89,-14.63,-18.01,-14.63,-18.01,18.00,18.29,3.38,3.37,3.38
25.14,-14.53,-17.89,-14.52,-17.88,17.88,18.20,3.35,3.36,3.36
25.39,-14.40,-17.75,-14.40,-17.76,17.76,18.10,3.36,3.36,3.36
25.65,-14.28,-17.63,-14.29,-17.63,17.64,17.99,3.36,3.36,3.35
25.91,-14.17,-17.51,-14.17,-17.51,17.53,17.87,3.35,3.35,3.34
26.16,-14.07,-17.40,-14.07,-17.40,17.41,17.74,3.34,3.34,3.33
26.43,-13.97,-17.30,-13.97,-17.30,17.29,17.60,3.32,3.32,3.32
26.69,-13.87,-17.19,-13.87,-17.19,17.18,17.44,3.31,3.31,3.32
26.96,-13.76,-17.07,-13.77,-17.07,17.06,17.28,3.29,3.29,3.31
27.23,-13.66,-16.94,-13.66,-16.94,16.94,17.09,3.27,3.27,3.28
27.50,-13.56,-16.82,-13.56,-16.81,16.81,16.91,3.25,3.25,3.25
27.77,-13.45,-16.68,-13.45,-16.68,16.68,16.71,3.23,3.23,3.23
28.05,-13.35,-16.55,-13.35,-16.55,16.55,16.52,3.20,3.20,3.20
28.33,-13.25,-16.42,-13.25,-16.42,16.42,16.34,3.17,3.18,3.17
28.62,-13.14,-16.29,-13.15,-16.29,16.29,16.17,3.15,3.15,3.14
28.90,-13.04,-16.16,-13.04,-16.16,16.17,16.03,3.13,3.13,3.11
29.19,-12.94,-16.04,-12.94,-16.03,16.04,15.90,3.10,3.11,3.10
29.48,-12.83,-15.91,-12.84,-15.92,15.92,15.81,3.09,3.08,3.08
29.78,-12.73,-15.80,-12.73,-15.80,15.79,15.73,3.06,3.06,3.07
30.08,-12.63,-15.69,-12.62,-15.67,15.67,15.67,3.03,3.05,3.05
30.38,-12.50,-15.54,-12.51,-15.55,15.54,15.60,3.04,3.03,3.04
30.68,-12.38,-15.40,-12.39,-15.41,15.41,15.52,3.03,3.02,3.02
30.99,-12.28,-15.28,-12.27,-15.27,15.27,15.44,2.99,3.00,3.00
31.30,-12.15,-15.12,-12.16,-15.13,15.13,15.31,2.98,2.97,2.97
31.61,-12.05,-14.99,-12.04,-14.99,14.99,15.18,2.94,2.94,2.94
31.93,-11.92,-14.84,-11.93,-14.84,14.84,15.00,2.91,2.91,2.91
32.24,-11.80,-14.69,-11.80,-14.69,14.68,14.80,2.88,2.88,2.89
32.57,-11.69,-14.54,-11.68,-14.53,14.53,14.57,2.83,2.84,2.85
32.89,-11.55,-14.36,-11.56,-14.37,14.37,14.34,2.82,2.81,2.81
33.22,-11.44,-14.21,-11.43,-14.21,14.21,14.11,2.77,2.77,2.77
33.55,-11.30,-14.03,-11.30,-14.04,14.04,13.89,2.74,2.74,2.73
33.89,-11.18,-13.89,-11.18,-13.88,13.88,13.70,2.70,2.70,2.71
34.23,-11.05,-13.72,-11.05,-13.72,13.72,13.53,2.67,2.67,2.67
34.57,-10.92,-13.56,-10.92,-13.56,13.57,13.41,2.64,2.64,2.64
34.92,-10.80,-13.41,-10.79,-13.41,13.41,13.31,2.61,2.62,2.61
35.27,-10.65,-13.25,-10.66,-13.26,13.26,13.23,2.61,2.60,2.60
35.62,-10.53,-13.11,-10.53,-13.11,13.11,13.15,2.58,2.59,2.58
35.97,-10.40,-12.97,-10.40,-12.97,12.97,13.06,2.57,2.57,2.57
36.33,-10.26,-12.83,-10.27,-12.83,12.83,12.96,2.57,2.56,2.57
36.70,-10.15,-12.70,-10.14,-12.69,12.69,12.83,2.54,2.55,2.55
37.06,-10.01,-12.55,-10.02,-12.56,12.55,12.69,2.54,2.54,2.54
37.43,-9.90,-12.43,-9.89,-12.42,12.42,12.52,2.52,2.53,2.53
37.81,-9.76,-12.28,-9.76,-12.28,12.28,12.36,2.52,2.52,2.52
38.19,-9.64,-12.15,-9.64,-12.15,12.15,12.19,2.51,2.51,2.51
38.57,-9.51,-12.01,-9.51,-12.02,12.02,12.02,2.51,2.51,2.50
38.95,-9.40,-11.89,-9.40,-11.89,11.89,11.87,2.49,2.49,2.49
39.34,-9.27,-11.75,-9.27,-11.76,11.76,11.73,2.49,2.48,2.48
39.74,-9.16,-11.64,-9.16,-11.63,11.63,11.60,2.46,2.47,2.47
40.14,-9.03,-11.50,-9.03,-11.50,11.49,11.48,2.46,2.46,2.46
40.54,-8.91,-11.37,-8.91,-11.37,11.36,11.37,2.45,2.45,2.46
40.94,-8.78,-11.23,-8.79,-11.23,11.23,11.25,2.45,2.44,2.45
41.35,-8.67,-11.10,-8.67,-11.09,11.10,11.14,2.43,2.43,2.43
41.76,-8.55,-10.96,-8.55,-10.96,10.97,11.02,2.42,2.42,2.41
42.18,-8.43,-10.82,-8.44,-10.83,10.83,10.89,2.40,2.40,2.39
42.60,-8.33,-10.71,-8.33,-10.70,10.70,10.75,2.37,2.38,2.38
43.03,-8.22,-10.58,-8.22,-10.58,10.57,10.60,2.35,2.35,2.36
43.46,-8.12,-10.46,-8.12,-10.46,10.45,10.44,2.33,2.33,2.34
43.90,-7.99,-10.32,-8.00,-10.32,10.32,10.28,2.32,2.32,2.33
44.33,-7.89,-10.20,-7.88,-10.19,10.19,10.13,2.30,2.31,2.31
44.78,-7.75,-10.05,-7.76,-10.05,10.05,9.99,2.30,2.30,2.30
45.23,-7.64,-9.92,-7.64,-9.92,9.92,9.86,2.28,2.28,2.28
45.68,-7.52,-9.79,-7.52,-9.79,9.79,9.75,2.26,2.26,2.26
46.13,-7.41,-9.65,-7.41,-9.65,9.65,9.65,2.24,2.25,2.24
46.60,-7.29,-9.52,-7.28,-9.51,9.52,9.55,2.23,2.24,2.23
47.06,-7.16,-9.37,-7.17,-9.38,9.39,9.44,2.23,2.22,2.21
47.53,-7.06,-9.24,-7.07,-9.25,9.26,9.31,2.20,2.19,2.18
48.01,-6.98,-9.14,-6.97,-9.13,9.13,9.17,2.14,2.16,2.16
48.49,-6.88,-9.01,-6.88,-9.00,8.99,9.01,2.11,2.12,2.13
48.97,-6.77,-8.86,-6.78,-8.87,8.86,8.86,2.09,2.08,2.09
49.46,-6.69,-8.73,-6.69,-8.73,8.73,8.70,2.04,2.04,2.04
49.96,-6.61,-8.61,-6.60,-8.60,8.60,8.57,1.99,1.99,2.00
50.46,-6.51,-8.46,-6.52,-8.47,8.47,8.44,1.96,1.95,1.95
50.96,-6.44,-8.34,-6.43,-8.34,8.34,8.33,1.90,1.91,1.90
51.47,-6.34,-8.21,-6.35,-8.21,8.21,8.22,1.87,1.87,1.87
51.99,-6.27,-8.09,-6.27,-8.09,8.09,8.11,1.82,1.83,1.82
52.51,-6.18,-7.97,-6.19,-7.98,7.98,8.00,1.80,1.79,1.79
53.03,-6.12,-7.88,-6.11,-7.87,7.88,7.90,1.76,1.76,1.76
53.56,-6.03,-7.77,-6.03,-7.78,7.78,7.81,1.75,1.75,1.74
54.10,-5.96,-7.69,-5.96,-7.69,7.70,7.72,1.73,1.74,1.73
54.64,-5.88,-7.62,-5.88,-7.62,7.62,7.65,1.74,1.74,1.74
55.18,-5.81,-7.54,-5.81,-7.55,7.55,7.58,1.74,1.74,1.73
55.74,-5.74,-7.49,-5.74,-7.49,7.49,7.50,1.75,1.76,1.75
56.29,-5.66,-7.43,-5.67,-7.44,7.44,7.43,1.78,1.77,1.77
56.86,-5.61,-7.40,-5.60,-7.39,7.39,7.35,1.78,1.79,1.79
57.42,-5.54,-7.35,-5.55,-7.35,7.34,7.29,1.80,1.79,1.81
58.00,-5.49,-7.30,-5.50,-7.31,7.29,7.24,1.80,1.80,1.81
58.58,-5.46,-7.27,-5.45,-7.25,7.25,7.21,1.79,1.80,1.81
59.16,-5.41,-7.20,-5.42,-7.21,7.20,7.18,1.79,1.78,1.79
59.76,-5.39,-7.15,-5.39,-7.16,7.16,7.17,1.77,1.77,1.76
60.35,-5.39,-7.12,-5.38,-7.11,7.12,7.15,1.73,1.74,1.73
60.96,-5.36,-7.05,-5.38,-7.07,7.07,7.14,1.71,1.70,1.69
61.57,-5.39,-7.05,-5.38,-7.03,7.04,7.12,1.65,1.66,1.66
62.18,-5.39,-7.00,-5.39,-7.00,7.00,7.08,1.61,1.61,1.61
62.80,-5.39,-6.95,-5.41,-6.97,6.97,7.04,1.58,1.56,1.56
63.43,-5.43,-6.94,-5.42,-6.93,6.94,6.99,1.51,1.52,1.51
64.07,-5.43,-6.90,-5.43,-6.90,6.91,6.91,1.48,1.48,1.47
64.71,-5.43,-6.86,-5.44,-6.87,6.87,6.84,1.44,1.44,1.43
65.35,-5.43,-6.84,-5.43,-6.83,6.83,6.76,1.40,1.40,1.41
66.01,-5.40,-6.79,-5.40,-6.79,6.77,6.69,1.37,1.37,1.39
66.67,-5.35,-6.72,-5.34,-6.72,6.70,6.62,1.35,1.35,1.37
67.33,-5.25,-6.61,-5.26,-6.62,6.61,6.55,1.36,1.34,1.36
68.01,-5.17,-6.51,-5.16,-6.51,6.50,6.48,1.33,1.34,1.34
68.69,-5.04,-6.37,-5.04,-6.38,6.37,6.38,1.33,1.33,1.33
69.37,-4.91,-6.23,-4.91,-6.23,6.22,6.27,1.31,1.31,1.32
70.07,-4.76,-6.06,-4.76,-6.06,6.06,6.12,1.30,1.30,1.30
70.77,-4.60,-5.89,-4.60,-5.89,5.88,5.95,1.28,1.28,1.29
71.48,-4.44,-5.70,-4.44,-5.70,5.70,5.76,1.26,1.26,1.26
72.19,-4.28,-5.52,-4.28,-5.52,5.52,5.56,1.24,1.24,1.24
72.91,-4.12,-5.33,-4.12,-5.33,5.33,5.37,1.21,1.22,1.21
73.64,-3.95,-5.13,-3.96,-5.14,5.15,5.18,1.20,1.19,1.18
74.38,-3.81,-4.96,-3.81,-4.96,4.98,5.01,1.16,1.16,1.15
75.12,-3.68,-4.80,-3.68,-4.80,4.81,4.85,1.13,1.13,1.12
75.87,-3.56,-4.65,-3.56,-4.65,4.65,4.70,1.09,1.09,1.09
76.63,-3.45,-4.51,-3.45,-4.51,4.51,4.55,1.06,1.06,1.06
77.40,-3.35,-4.37,-3.35,-4.37,4.37,4.41,1.02,1.03,1.02
78.17,-3.25,-4.24,-3.26,-4.25,4.25,4.26,1.00,0.99,0.99
78.95,-3.17,-4.13,-3.17,-4.13,4.14,4.13,0.96,0.97,0.96
79.74,-3.10,-4.03,-3.09,-4.02,4.03,4.00,0.93,0.94,0.93
80.54,-3.00,-3.90,-3.01,-3.91,3.92,3.88,0.92,0.90,0.90
81.35,-2.94,-3.81,-2.94,-3.81,3.81,3.78,0.87,0.87,0.87
82.16,-2.88,-3.72,-2.87,-3.71,3.70,3.68,0.82,0.83,0.84
82.98,-2.81,-3.61,-2.81,-3.61,3.59,3.59,0.78,0.79,0.80
83.81,-2.72,-3.48,-2.73,-3.49,3.48,3.49,0.76,0.75,0.76
84.65,-2.66,-3.37,-2.65,-3.36,3.35,3.38,0.69,0.70,0.71
85.50,-2.56,-3.22,-2.57,-3.23,3.22,3.25,0.66,0.65,0.66
86.35,-2.50,-3.10,-2.49,-3.09,3.09,3.12,0.58,0.59,0.60
87.22,-2.40,-2.94,-2.41,-2.95,2.94,2.98,0.54,0.53,0.53
88.09,-2.34,-2.81,-2.34,-2.80,2.80,2.84,0.46,0.46,0.47
88.97,-2.27,-2.67,-2.26,-2.66,2.66,2.70,0.39,0.40,0.40
89.86,-2.18,-2.52,-2.19,-2.52,2.53,2.57,0.35,0.34,0.34
90.76,-2.11,-2.39,-2.11,-2.39,2.40,2.45,0.29,0.29,0.28
91.66,-2.03,-2.27,-2.03,-2.27,2.28,2.34,0.25,0.25,0.24
92.58,-1.96,-2.17,-1.96,-2.17,2.17,2.24,0.21,0.21,0.21
93.51,-1.89,-2.07,-1.89,-2.06,2.07,2.14,0.18,0.18,0.18
94.44,-1.81,-1.97,-1.81,-1.98,1.98,2.04,0.17,0.16,0.16
95.39,-1.73,-1.89,-1.73,-1.89,1.90,1.95,0.17,0.16,0.16
96.34,-1.66,-1.83,-1.65,-1.82,1.83,1.86,0.16,0.17,0.17
97.30,-1.57,-1.75,-1.58,-1.76,1.76,1.77,0.19,0.18,0.18
98.28,-1.51,-1.71,-1.51,-1.70,1.70,1.69,0.19,0.19,0.19
99.26,-1.44,-1.65,-1.44,-1.65,1.64,1.61,0.20,0.20,0.21
100.25,-1.37,-1.59,-1.37,-1.60,1.59,1.53,0.21,0.22,0.22
101.25,-1.30,-1.53,-1.31,-1.54,1.53,1.46,0.23,0.22,0.23
102.27,-1.25,-1.49,-1.25,-1.48,1.48,1.40,0.23,0.23,0.24
103.29,-1.21,-1.43,-1.20,-1.42,1.43,1.33,0.22,0.23,0.22
104.32,-1.16,-1.37,-1.16,-1.37,1.38,1.28,0.22,0.22,0.21
105.37,-1.11,-1.32,-1.12,-1.32,1.33,1.23,0.22,0.21,0.21
106.42,-1.08,-1.29,-1.07,-1.28,1.28,1.18,0.20,0.21,0.21
107.48,-1.03,-1.24,-1.03,-1.24,1.24,1.15,0.21,0.21,0.21
108.56,-0.99,-1.20,-0.99,-1.20,1.20,1.11,0.21,0.21,0.21
109.64,-0.95,-1.15,-0.95,-1.15,1.16,1.09,0.21,0.21,0.20
110.74,-0.92,-1.12,-0.92,-1.12,1.12,1.06,0.20,0.20,0.20
111.85,-0.89,-1.09,-0.89,-1.09,1.08,1.04,0.19,0.19,0.20
112.97,-0.88,-1.07,-0.87,-1.06,1.05,1.03,0.17,0.18,0.19
114.10,-0.84,-1.02,-0.85,-1.02,1.02,1.02,0.18,0.17,0.18
115.24,-0.84,-1.00,-0.84,-0.99,0.99,1.01,0.15,0.16,0.15
116.39,-0.84,-0.97,-0.84,-0.97,0.97,1.01,0.13,0.14,0.12
117.55,-0.84,-0.94,-0.85,-0.95,0.96,1.01,0.12,0.11,0.10
118.73,-0.88,-0.96,-0.87,-0.95,0.95,1.00,0.07,0.09,0.08
119.92,-0.88,-0.94,-0.89,-0.96,0.96,1.01,0.07,0.06,0.06
121.12,-0.94,-0.97,-0.93,-0.97,0.97,1.01,0.03,0.03,0.03
122.33,-0.97,-0.97,-0.97,-0.98,0.99,1.01,0.02,0.01,0.00
123.55,-1.03,-1.01,-1.03,-1.01,1.02,1.01,-0.02,-0.01,-0.03
124.79,-1.08,-1.04,-1.08,-1.04,1.05,1.02,-0.03,-0.04,-0.04
126.03,-1.14,-1.08,-1.15,-1.08,1.08,1.02,-0.06,-0.06,-0.06
127.29,-1.22,-1.13,-1.21,-1.12,1.12,1.02,-0.10,-0.09,-0.09
128.57,-1.27,-1.15,-1.28,-1.16,1.15,1.02,-0.12,-0.13,-0.12
129.85,-1.34,-1.19,-1.33,-1.19,1.18,1.02,-0.16,-0.15,-0.15
131.15,-1.38,-1.21,-1.38,-1.20,1.20,1.03,-0.18,-0.18,-0.17
132.46,-1.42,-1.21,-1.43,-1.22,1.21,1.03,-0.21,-0.22,-0.21
133.79,-1.47,-1.22,-1.46,-1.21,1.21,1.02,-0.26,-0.25,-0.25
135.12,-1.49,-1.21,-1.49,-1.20,1.19,1.02,-0.30,-0.29,-0.29
136.48,-1.49,-1.17,-1.50,-1.18,1.17,1.02,-0.32,-0.33,-0.32
137.84,-1.49,-1.13,-1.49,-1.13,1.13,1.01,-0.36,-0.36,-0.36
139.22,-1.49,-1.10,-1.48,-1.08,1.08,1.01,-0.41,-0.39,-0.39
140.61,-1.44,-1.01,-1.46,-1.03,1.02,1.00,-0.42,-0.43,-0.43
142.02,-1.43,-0.97,-1.43,-0.97,0.96,0.99,-0.47,-0.47,-0.46
143.44,-1.40,-0.90,-1.40,-0.90,0.89,0.98,-0.51,-0.50,-0.50
144.87,-1.37,-0.84,-1.37,-0.83,0.82,0.97,-0.55,-0.54,-0.53
146.32,-1.32,-0.75,-1.33,-0.76,0.76,0.96,-0.56,-0.57,-0.58
147.78,-1.31,-0.70,-1.30,-0.69,0.70,0.95,-0.61,-0.60,-0.61
149.26,-1.27,-0.64,-1.28,-0.65,0.66,0.93,-0.61,-0.62,-0.63
150.75,-1.27,-0.62,-1.27,-0.61,0.63,0.92,-0.65,-0.64,-0.65
152.26,-1.27,-0.59,-1.27,-0.59,0.61,0.90,-0.66,-0.66,-0.68
153.78,-1.27,-0.58,-1.28,-0.59,0.61,0.88,-0.66,-0.68,-0.69
155.32,-1.31,-0.61,-1.30,-0.61,0.62,0.86,-0.69,-0.68,-0.70
156.88,-1.34,-0.65,-1.34,-0.64,0.65,0.84,-0.69,-0.69,-0.69
158.44,-1.37,-0.67,-1.38,-0.68,0.68,0.82,-0.69,-0.70,-0.70
160.03,-1.42,-0.73,-1.42,-0.72,0.72,0.80,-0.70,-0.69,-0.69
161.63,-1.46,-0.76,-1.46,-0.76,0.76,0.77,-0.70,-0.70,-0.70
163.24,-1.49,-0.79,-1.50,-0.80,0.79,0.75,-0.70,-0.71,-0.70
164.88,-1.53,-0.84,-1.52,-0.82,0.81,0.72,-0.73,-0.71,-0.69
166.53,-1.53,-0.83,-1.53,-0.83,0.81,0.69,-0.73,-0.73,-0.70
168.19,-1.53,-0.81,-1.54,-0.81,0.79,0.66,-0.74,-0.75,-0.72
169.87,-1.53,-0.77,-1.53,-0.77,0.75,0.64,-0.78,-0.77,-0.76
171.57,-1.51,-0.71,-1.51,-0.71,0.70,0.60,-0.81,-0.81,-0.80
173.29,-1.49,-0.66,-1.49,-0.64,0.64,0.57,-0.85,-0.84,-0.84
175.02,-1.45,-0.55,-1.46,-0.56,0.57,0.54,-0.88,-0.89,-0.90
176.77,-1.44,-0.49,-1.43,-0.49,0.50,0.50,-0.94,-0.93,-0.95
178.54,-1.41,-0.41,-1.41,-0.42,0.43,0.47,-0.98,-0.98,-1.00
180.32,-1.40,-0.36,-1.40,-0.36,0.37,0.43,-1.03,-1.04,-1.04
182.13,-1.40,-0.31,-1.39,-0.30,0.31,0.38,-1.09,-1.08,-1.09
183.95,-1.40,-0.25,-1.40,-0.26,0.26,0.34,-1.14,-1.14,-1.15
185.79,-1.40,-0.20,-1.41,-0.21,0.22,0.29,-1.18,-1.19,-1.20
187.65,-1.44,-0.19,-1.43,-0.18,0.19,0.25,-1.25,-1.24,-1.25
189.52,-1.44,-0.15,-1.46,-0.16,0.16,0.19,-1.28,-1.30,-1.29
191.42,-1.49,-0.15,-1.48,-0.14,0.12,0.14,-1.37,-1.35,-1.34
193.33,-1.49,-0.11,-1.49,-0.10,0.09,0.09,-1.40,-1.40,-1.38
195.27,-1.49,-0.05,-1.50,-0.07,0.05,0.03,-1.44,-1.45,-1.44
197.22,-1.51,-0.03,-1.50,-0.02,0.02,-0.02,-1.50,-1.49,-1.48
199.19,-1.50,0.03,-1.50,0.03,-0.03,-0.06,-1.53,-1.53,-1.53
201.18,-1.49,0.08,-1.49,0.07,-0.07,-0.10,-1.56,-1.56,-1.57
203.19,-1.48,0.10,-1.47,0.12,-0.11,-0.13,-1.59,-1.58,-1.58
205.23,-1.44,0.16,-1.45,0.15,-0.15,-0.15,-1.59,-1.60,-1.60
207.28,-1.42,0.19,-1.42,0.18,-0.18,-0.18,-1.60,-1.60,-1.61
209.35,-1.39,0.21,-1.39,0.22,-0.21,-0.19,-1.60,-1.60,-1.60
211.44,-1.36,0.23,-1.36,0.24,-0.23,-0.20,-1.60,-1.59,-1.59
213.56,-1.31,0.27,-1.32,0.25,-0.25,-0.21,-1.57,-1.58,-1.58
215.69,-1.30,0.26,-1.29,0.27,-0.27,-0.22,-1.57,-1.56,-1.56
217.85,-1.27,0.27,-1.27,0.28,-0.28,-0.23,-1.55,-1.55,-1.54
220.03,-1.25,0.29,-1.25,0.28,-0.29,-0.24,-1.54,-1.54,-1.54
222.23,-1.23,0.30,-1.23,0.29,-0.29,-0.24,-1.52,-1.52,-1.53
224.45,-1.22,0.28,-1.21,0.29,-0.28,-0.24,-1.51,-1.49,-1.50
226.70,-1.18,0.29,-1.19,0.28,-0.28,-0.23,-1.46,-1.47,-1.47
228.96,-1.18,0.26,-1.18,0.27,-0.26,-0.23,-1.44,-1.45,-1.44
231.25,-1.18,0.25,-1.18,0.25,-0.25,-0.22,-1.43,-1.42,-1.43
233.57,-1.18,0.23,-1.18,0.22,-0.22,-0.21,-1.40,-1.40,-1.41
235.90,-1.18,0.19,-1.18,0.20,-0.20,-0.21,-1.38,-1.38,-1.37
238.26,-1.18,0.18,-1.18,0.17,-0.17,-0.21,-1.35,-1.35,-1.36
240.64,-1.18,0.15,-1.18,0.15,-0.14,-0.21,-1.32,-1.32,-1.33
243.05,-1.18,0.13,-1.18,0.12,-0.11,-0.21,-1.29,-1.29,-1.31
245.48,-1.18,0.09,-1.18,0.09,-0.10,-0.21,-1.28,-1.28,-1.27
247.93,-1.18,0.07,-1.18,0.08,-0.09,-0.22,-1.27,-1.27,-1.25
250.41,-1.18,0.08,-1.18,0.08,-0.10,-0.22,-1.28,-1.28,-1.26
252.92,-1.18,0.09,-1.18,0.09,-0.11,-0.23,-1.29,-1.30,-1.27
255.45,-1.18,0.13,-1.18,0.13,-0.14,-0.24,-1.32,-1.32,-1.31
258.00,-1.18,0.16,-1.17,0.18,-0.18,-0.25,-1.36,-1.35,-1.34
260.58,-1.14,0.25,-1.15,0.24,-0.23,-0.27,-1.37,-1.39,-1.39
263.19,-1.14,0.31,-1.14,0.31,-0.29,-0.28,-1.43,-1.43,-1.45
265.82,-1.14,0.37,-1.14,0.36,-0.35,-0.30,-1.49,-1.49,-1.51
268.48,-1.14,0.41,-1.14,0.41,-0.41,-0.32,-1.55,-1.55,-1.55
271.16,-1.14,0.45,-1.13,0.46,-0.47,-0.34,-1.61,-1.61,-1.59
273.87,-1.12,0.53,-1.13,0.52,-0.53,-0.36,-1.65,-1.65,-1.65
276.61,-1.12,0.58,-1.12,0.57,-0.58,-0.39,-1.70,-1.70,-1.70
279.38,-1.12,0.62,-1.12,0.62,-0.62,-0.42,-1.74,-1.73,-1.74
282.17,-1.12,0.66,-1.12,0.66,-0.65,-0.46,-1.77,-1.77,-1.78
284.99,-1.12,0.70,-1.13,0.69,-0.68,-0.50,-1.80,-1.81,-1.82
287.84,-1.14,0.70,-1.13,0.71,-0.69,-0.54,-1.84,-1.83,-1.85
290.72,-1.14,0.71,-1.14,0.71,-0.70,-0.59,-1.84,-1.84,-1.85
293.63,-1.14,0.71,-1.15,0.70,-0.70,-0.64,-1.84,-1.85,-1.85
296.57,-1.17,0.68,-1.16,0.69,-0.69,-0.70,-1.86,-1.85,-1.85
299.53,-1.18,0.67,-1.18,0.67,-0.68,-0.75,-1.86,-1.86,-1.85
302.53,-1.18,0.67,-1.20,0.65,-0.67,-0.81,-1.85,-1.87,-1.85
305.55,-1.23,0.63,-1.22,0.64,-0.65,-0.85,-1.88,-1.87,-1.86
308.61,-1.23,0.63,-1.22,0.64,-0.64,-0.88,-1.87,-1.86,-1.86
311.69,-1.23,0.64,-1.24,0.63,-0.63,-0.89,-1.86,-1.87,-1.87
314.81,-1.23,0.64,-1.24,0.63,-0.63,-0.88,-1.86,-1.88,-1.87
317.96,-1.27,0.61,-1.26,0.63,-0.63,-0.85,-1.90,-1.89,-1.88
321.14,-1.27,0.62,-1.27,0.63,-0.64,-0.80,-1.91,-1.90,-1.89
324.35,-1.27,0.63,-1.28,0.62,-0.64,-0.73,-1.91,-1.92,-1.90
327.59,-1.27,0.64,-1.28,0.63,-0.64,-0.65,-1.91,-1.92,-1.91
330.87,-1.31,0.62,-1.30,0.63,-0.62,-0.57,-1.93,-1.92,-1.93
334.18,-1.31,0.62,-1.32,0.61,-0.60,-0.48,-1.91,-1.91,-1.94
337.52,-1.34,0.57,-1.34,0.57,-0.56,-0.40,-1.90,-1.90,-1.91
340.90,-1.36,0.52,-1.36,0.52,-0.50,-0.31,-1.86,-1.87,-1.88
344.30,-1.40,0.43,-1.39,0.43,-0.43,-0.23,-1.83,-1.82,-1.83
347.75,-1.42,0.34,-1.42,0.33,-0.33,-0.14,-1.75,-1.75,-1.76
351.23,-1.45,0.22,-1.45,0.22,-0.21,-0.05,-1.66,-1.66,-1.67
354.74,-1.48,0.09,-1.48,0.10,-0.08,0.04,-1.56,-1.55,-1.57
358.28,-1.51,-0.04,-1.52,-0.05,0.07,0.13,-1.44,-1.45,-1.47
361.87,-1.57,-0.20,-1.57,-0.21,0.22,0.22,-1.35,-1.34,-1.37
365.49,-1.63,-0.38,-1.62,-0.37,0.37,0.32,-1.26,-1.25,-1.25
369.14,-1.68,-0.52,-1.69,-0.53,0.51,0.42,-1.17,-1.18,-1.16
372.83,-1.76,-0.67,-1.76,-0.66,0.63,0.52,-1.13,-1.12,-1.09
376.56,-1.83,-0.77,-1.83,-0.76,0.73,0.61,-1.10,-1.09,-1.06
380.33,-1.89,-0.83,-1.90,-0.84,0.81,0.69,-1.08,-1.10,-1.06
384.13,-1.98,-0.88,-1.97,-0.88,0.85,0.74,-1.13,-1.12,-1.10
387.97,-2.05,-0.90,-2.04,-0.88,0.87,0.77,-1.18,-1.17,-1.16
391.85,-2.10,-0.86,-2.11,-0.86,0.87,0.78,-1.23,-1.24,-1.24
395.77,-2.16,-0.82,-2.16,-0.82,0.85,0.76,-1.32,-1.31,-1.34
399.73,-2.21,-0.78,-2.22,-0.79,0.81,0.72,-1.40,-1.41,-1.43
403.72,-2.26,-0.74,-2.26,-0.74,0.75,0.67,-1.51,-1.51,-1.52
407.76,-2.31,-0.71,-2.30,-0.70,0.69,0.62,-1.62,-1.61,-1.60
411.84,-2.31,-0.63,-2.33,-0.64,0.62,0.56,-1.69,-1.71,-1.68
415.96,-2.35,-0.58,-2.34,-0.57,0.54,0.52,-1.81,-1.80,-1.77
420.12,-2.35,-0.48,-2.35,-0.48,0.46,0.47,-1.89,-1.88,-1.87
424.32,-2.35,-0.39,-2.36,-0.40,0.39,0.44,-1.96,-1.96,-1.97
428.56,-2.35,-0.32,-2.35,-0.31,0.33,0.42,-2.02,-2.02,-2.03
432.85,-2.35,-0.26,-2.34,-0.25,0.28,0.40,-2.07,-2.06,-2.09
437.18,-2.33,-0.21,-2.34,-0.22,0.26,0.40,-2.08,-2.08,-2.12
441.55,-2.33,-0.20,-2.34,-0.22,0.25,0.40,-2.08,-2.09,-2.13
445.96,-2.35,-0.26,-2.34,-0.25,0.27,0.41,-2.08,-2.07,-2.09
450.42,-2.35,-0.32,-2.35,-0.31,0.31,0.43,-2.04,-2.03,-2.03
454.93,-2.35,-0.37,-2.36,-0.38,0.37,0.46,-1.98,-1.98,-1.98
459.48,-2.35,-0.45,-2.36,-0.46,0.45,0.49,-1.90,-1.92,-1.90
464.07,-2.40,-0.56,-2.38,-0.54,0.53,0.54,-1.87,-1.85,-1.84
468.71,-2.40,-0.61,-2.41,-0.62,0.62,0.59,-1.79,-1.79,-1.79
473.40,-2.43,-0.71,-2.43,-0.71,0.70,0.66,-1.73,-1.73,-1.72
478.13,-2.44,-0.78,-2.44,-0.78,0.78,0.73,-1.66,-1.66,-1.66
482.91,-2.48,-0.88,-2.47,-0.87,0.86,0.81,-1.62,-1.61,-1.60
487.74,-2.48,-0.92,-2.49,-0.93,0.94,0.89,-1.54,-1.56,-1.56
492.62,-2.53,-1.01,-2.52,-1.01,1.01,0.98,-1.52,-1.51,-1.52
497.55,-2.54,-1.06,-2.54,-1.07,1.07,1.05,-1.47,-1.47,-1.48
502.52,-2.57,-1.14,-2.57,-1.13,1.13,1.12,-1.44,-1.44,-1.43
507.55,-2.58,-1.17,-2.59,-1.18,1.18,1.17,-1.40,-1.41,-1.41
512.62,-2.61,-1.22,-2.60,-1.21,1.21,1.20,-1.40,-1.39,-1.39
517.75,-2.61,-1.23,-2.62,-1.24,1.23,1.21,-1.38,-1.39,-1.38
522.93,-2.63,-1.24,-2.64,-1.25,1.23,1.21,-1.40,-1.41,-1.39
528.16,-2.66,-1.24,-2.65,-1.23,1.21,1.20,-1.45,-1.44,-1.42
533.44,-2.66,-1.20,-2.66,-1.20,1.18,1.18,-1.48,-1.48,-1.46
538.77,-2.66,-1.15,-2.66,-1.15,1.14,1.14,-1.52,-1.53,-1.52
544.16,-2.66,-1.08,-2.66,-1.08,1.08,1.10,-1.58,-1.58,-1.58
549.60,-2.66,-1.00,-2.66,-1.01,1.01,1.04,-1.65,-1.65,-1.66
555.10,-2.66,-0.94,-2.66,-0.94,0.94,0.97,-1.72,-1.72,-1.72
