frequency,raw,error,smoothed,error_smoothed,equalization,parametric_eq,equalized_raw,equalized_smoothed,target
20.00,-10.18,-16.42,-10.19,-16.43,16.44,16.40,6.26,6.25,6.24
20.20,-10.13,-16.40,-10.13,-16.40,16.40,16.37,6.27,6.27,6.27
20.40,-10.09,-16.39,-10.07,-16.36,16.36,16.33,6.27,6.29,6.30
20.61,-9.98,-16.30,-9.99,-16.32,16.31,16.28,6.33,6.32,6.32
20.81,-9.91,-16.26,-9.91,-16.26,16.25,16.23,6.34,6.34,6.35
21.02,-9.81,-16.19,-9.82,-16.19,16.19,16.16,6.38,6.38,6.38
21.23,-9.74,-16.13,-9.74,-16.13,16.12,16.09,6.38,6.39,6.39
21.44,-9.64,-16.04,-9.65,-16.05,16.05,16.01,6.41,6.40,6.40
21.66,-9.57,-15.98,-9.56,-15.96,15.96,15.93,6.39,6.40,6.41
21.87,-9.46,-15.87,-9.46,-15.87,15.87,15.84,6.41,6.41,6.41
22.09,-9.36,-15.78,-9.37,-15.78,15.77,15.75,6.41,6.41,6.42
22.31,-9.27,-15.69,-9.26,-15.68,15.67,15.66,6.40,6.41,6.42
22.54,-9.16,-15.58,-9.16,-15.57,15.57,15.57,6.41,6.41,6.42
22.76,-9.05,-15.46,-9.05,-15.46,15.46,15.47,6.41,6.41,6.42
22.99,-8.94,-15.35,-8.95,-15.35,15.36,15.38,6.42,6.42,6.40
23.22,-8.85,-15.26,-8.85,-15.25,15.27,15.29,6.41,6.42,6.40
23.45,-8.75,-15.15,-8.76,-15.16,15.17,15.20,6.42,6.41,6.40
23.69,-8.67,-15.08,-8.67,-15.08,15.08,15.11,6.41,6.41,6.40
23.92,-8.60,-15.00,-8.59,-15.00,15.00,15.02,6.40,6.41,6.40
24.16,-8.52,-14.92,-8.52,-14.92,14.92,14.94,6.40,6.40,6.40
24.40,-8.44,-14.84,-8.45,-14.85,14.85,14.85,6.41,6.39,6.40
24.65,-8.39,-14.78,-8.38,-14.77,14.77,14.77,6.38,6.39,6.39
24.89,-8.31,-14.70,-8.31,-14.70,14.70,14.68,6.39,6.39,6.39
25.14,-8.23,-14.62,-8.24,-14.63,14.62,14.60,6.39,6.38,6.39
25.39,-8.16,-14.55,-8.16,-14.55,14.55,14.52,6.39,6.38,6.39
25.65,-8.10,-14.49,-8.09,-14.47,14.47,14.44,6.37,6.38,6.39
25.91,-8.00,-14.38,-8.01,-14.39,14.39,14.36,6.39,6.38,6.38
26.16,-7.93,-14.31,-7.93,-14.30,14.31,14.28,6.38,6.38,6.38
26.43,-7.84,-14.22,-7.84,-14.22,14.23,14.20,6.38,6.38,6.38
26.69,-7.76,-14.14,-7.77,-14.14,14.14,14.12,6.38,6.37,6.38
26.96,-7.69,-14.07,-7.69,-14.06,14.06,14.04,6.36,6.37,6.37
27.23,-7.61,-13.98,-7.61,-13.98,13.97,13.96,6.36,6.36,6.36
27.50,-7.52,-13.88,-7.53,-13.89,13.88,13.88,6.36,6.36,6.36
27.77,-7.45,-13.80,-7.44,-13.80,13.80,13.80,6.35,6.36,6.35
28.05,-7.35,-13.70,-7.36,-13.71,13.72,13.72,6.36,6.35,6.35
28.33,-7.29,-13.63,-7.28,-13.62,13.63,13.64,6.34,6.35,6.34
28.62,-7.20,-13.54,-7.20,-13.54,13.55,13.56,6.34,6.34,6.34
28.90,-7.12,-13.46,-7.13,-13.46,13.46,13.48,6.34,6.33,6.34
29.19,-7.06,-13.39,-7.05,-13.38,13.38,13.40,6.32,6.33,6.33
29.48,-6.97,-13.30,-6.97,-13.30,13.29,13.31,6.32,6.32,6.33
29.78,-6.89,-13.21,-6.90,-13.21,13.21,13.23,6.32,6.31,6.32
30.08,-6.82,-13.14,-6.81,-13.12,13.13,13.15,6.30,6.31,6.31
30.38,-6.73,-13.03,-6.74,-13.04,13.04,13.07,6.31,6.31,6.30
30.68,-6.65,-12.95,-6.66,-12.96,12.96,12.98,6.31,6.30,6.30
30.99,-6.59,-12.88,-6.58,-12.87,12.88,12.90,6.28,6.29,6.29
31.30,-6.50,-12.78,-6.51,-12.79,12.79,12.81,6.29,6.28,6.28
31.61,-6.44,-12.72,-6.44,-12.71,12.71,12.73,6.27,6.27,6.28
31.93,-6.36,-12.63,-6.36,-12.63,12.63,12.64,6.26,6.26,6.27
32.24,-6.29,-12.54,-6.29,-12.55,12.54,12.56,6.25,6.25,6.25
32.57,-6.21,-12.46,-6.21,-12.46,12.46,12.47,6.24,6.25,6.25
32.89,-6.12,-12.36,-6.13,-12.37,12.37,12.39,6.25,6.24,6.24
33.22,-6.06,-12.29,-6.05,-12.28,12.28,12.30,6.22,6.23,6.23
33.55,-5.96,-12.19,-5.97,-12.19,12.19,12.21,6.23,6.22,6.23
33.89,-5.89,-12.11,-5.89,-12.10,12.10,12.13,6.21,6.21,6.22
34.23,-5.81,-12.01,-5.81,-12.01,12.01,12.04,6.20,6.21,6.20
34.57,-5.72,-11.91,-5.73,-11.92,11.93,11.95,6.20,6.19,6.19
34.92,-5.66,-11.84,-5.66,-11.84,11.84,11.87,6.18,6.18,6.18
35.27,-5.59,-11.76,-5.59,-11.75,11.76,11.78,6.16,6.17,6.17
35.62,-5.51,-11.67,-5.52,-11.67,11.67,11.69,6.16,6.15,6.16
35.97,-5.45,-11.59,-5.45,-11.59,11.59,11.61,6.14,6.14,6.14
36.33,-5.39,-11.52,-5.39,-11.52,11.52,11.52,6.13,6.13,6.13
36.70,-5.32,-11.44,-5.32,-11.44,11.44,11.44,6.12,6.12,6.12
37.06,-5.26,-11.37,-5.26,-11.37,11.37,11.35,6.11,6.11,6.11
37.43,-5.20,-11.29,-5.20,-11.29,11.29,11.27,6.09,6.09,6.09
37.81,-5.14,-11.22,-5.14,-11.22,11.22,11.18,6.08,6.08,6.08
38.19,-5.08,-11.15,-5.08,-11.15,11.14,11.10,6.06,6.06,6.07
38.57,-5.01,-11.06,-5.01,-11.07,11.06,11.02,6.05,6.05,6.05
38.95,-4.95,-10.99,-4.95,-10.99,10.99,10.94,6.04,6.04,6.04
39.34,-4.89,-10.91,-4.89,-10.91,10.91,10.85,6.02,6.02,6.02
39.74,-4.83,-10.84,-4.83,-10.83,10.83,10.77,6.00,6.01,6.00
40.14,-4.76,-10.75,-4.76,-10.75,10.76,10.69,6.00,5.99,5.99
40.54,-4.70,-10.68,-4.70,-10.68,10.68,10.62,5.98,5.98,5.98
40.94,-4.64,-10.60,-4.64,-10.60,10.60,10.54,5.96,5.96,5.96
41.35,-4.58,-10.53,-4.58,-10.53,10.53,10.46,5.95,5.95,5.95
41.76,-4.52,-10.46,-4.52,-10.45,10.45,10.39,5.93,5.93,5.94
42.18,-4.45,-10.37,-4.45,-10.38,10.37,10.31,5.92,5.92,5.92
42.60,-4.39,-10.30,-4.39,-10.30,10.30,10.24,5.91,5.91,5.91
43.03,-4.33,-10.22,-4.33,-10.22,10.22,10.17,5.89,5.89,5.89
43.46,-4.27,-10.14,-4.27,-10.14,10.14,10.10,5.87,5.87,5.87
43.90,-4.21,-10.05,-4.22,-10.06,10.06,10.03,5.85,5.84,5.84
44.33,-4.17,-9.99,-4.17,-9.98,9.99,9.96,5.82,5.82,5.82
44.78,-4.12,-9.91,-4.11,-9.91,9.91,9.89,5.79,5.79,5.79
45.23,-4.06,-9.83,-4.06,-9.83,9.83,9.82,5.77,5.77,5.77
45.68,-4.00,-9.75,-4.01,-9.76,9.76,9.76,5.76,5.75,5.75
46.13,-3.96,-9.69,-3.96,-9.69,9.69,9.69,5.73,5.73,5.73
46.60,-3.91,-9.62,-3.91,-9.61,9.61,9.62,5.70,5.71,5.71
47.06,-3.85,-9.53,-3.86,-9.54,9.54,9.56,5.68,5.68,5.68
47.53,-3.80,-9.46,-3.80,-9.46,9.46,9.49,5.66,5.66,5.66
48.01,-3.75,-9.39,-3.75,-9.38,9.38,9.43,5.63,5.63,5.64
48.49,-3.70,-9.30,-3.70,-9.31,9.30,9.37,5.60,5.60,5.60
48.97,-3.66,-9.23,-3.66,-9.22,9.22,9.30,5.56,5.57,5.57
49.46,-3.61,-9.14,-3.61,-9.14,9.15,9.24,5.54,5.53,5.53
49.96,-3.57,-9.06,-3.57,-9.07,9.07,9.17,5.50,5.50,5.49
50.46,-3.54,-9.00,-3.53,-8.99,9.00,9.11,5.46,5.47,5.46
50.96,-3.49,-8.93,-3.50,-8.93,8.93,9.04,5.44,5.43,5.44
51.47,-3.46,-8.86,-3.46,-8.86,8.87,8.98,5.41,5.40,5.40
51.99,-3.45,-8.82,-3.44,-8.81,8.81,8.91,5.36,5.37,5.37
52.51,-3.40,-8.74,-3.41,-8.75,8.75,8.84,5.35,5.34,5.34
53.03,-3.40,-8.71,-3.39,-8.70,8.70,8.77,5.30,5.31,5.31
53.56,-3.36,-8.63,-3.37,-8.64,8.64,8.70,5.28,5.27,5.27
54.10,-3.35,-8.59,-3.35,-8.59,8.59,8.63,5.24,5.24,5.24
54.64,-3.35,-8.55,-3.34,-8.54,8.54,8.56,5.19,5.20,5.20
55.18,-3.31,-8.48,-3.32,-8.49,8.48,8.49,5.17,5.16,5.17
55.74,-3.31,-8.44,-3.30,-8.43,8.43,8.42,5.12,5.13,5.13
56.29,-3.27,-8.37,-3.28,-8.38,8.38,8.35,5.11,5.10,5.10
56.86,-3.26,-8.33,-3.26,-8.32,8.32,8.28,5.06,5.06,5.06
57.42,-3.25,-8.27,-3.24,-8.27,8.27,8.21,5.02,5.03,5.02
58.00,-3.21,-8.20,-3.22,-8.21,8.22,8.14,5.00,4.99,4.99
58.58,-3.21,-8.17,-3.20,-8.16,8.16,8.07,4.95,4.96,4.96
59.16,-3.17,-8.09,-3.18,-8.10,8.10,8.00,4.93,4.92,4.92
59.76,-3.17,-8.06,-3.16,-8.05,8.04,7.94,4.87,4.88,4.89
60.35,-3.12,-7.97,-3.13,-7.98,7.97,7.88,4.85,4.84,4.85
60.96,-3.12,-7.92,-3.11,-7.91,7.91,7.81,4.79,4.80,4.80
61.57,-3.07,-7.82,-3.08,-7.83,7.84,7.75,4.77,4.76,4.75
62.18,-3.07,-7.77,-3.06,-7.76,7.77,7.69,4.70,4.71,4.70
62.80,-3.03,-7.68,-3.04,-7.69,7.70,7.63,4.67,4.66,4.65
63.43,-3.03,-7.64,-3.02,-7.63,7.63,7.57,4.60,4.61,4.61
64.07,-2.98,-7.54,-2.99,-7.56,7.55,7.51,4.57,4.56,4.56
64.71,-2.97,-7.49,-2.96,-7.48,7.48,7.45,4.51,4.51,4.52
65.35,-2.93,-7.40,-2.93,-7.40,7.40,7.39,4.47,4.47,4.47
66.01,-2.89,-7.32,-2.90,-7.32,7.32,7.32,4.43,4.42,4.43
66.67,-2.86,-7.24,-2.86,-7.23,7.23,7.26,4.37,4.37,4.38
67.33,-2.82,-7.15,-2.82,-7.14,7.14,7.19,4.32,4.33,4.33
68.01,-2.77,-7.05,-2.77,-7.05,7.05,7.12,4.28,4.28,4.28
68.69,-2.72,-6.95,-2.73,-6.95,6.96,7.05,4.23,4.23,4.23
69.37,-2.69,-6.87,-2.68,-6.86,6.86,6.97,4.17,4.18,4.18
70.07,-2.63,-6.75,-2.64,-6.76,6.76,6.89,4.13,4.12,4.12
70.77,-2.60,-6.67,-2.60,-6.67,6.66,6.81,4.06,4.07,4.07
71.48,-2.55,-6.57,-2.55,-6.57,6.57,6.73,4.02,4.01,4.02
72.19,-2.52,-6.48,-2.52,-6.48,6.47,6.65,3.95,3.96,3.95
72.91,-2.48,-6.38,-2.48,-6.38,6.38,6.56,3.90,3.90,3.90
73.64,-2.45,-6.29,-2.45,-6.29,6.29,6.47,3.84,3.84,3.84
74.38,-2.42,-6.20,-2.43,-6.21,6.21,6.38,3.78,3.78,3.78
75.12,-2.42,-6.14,-2.41,-6.12,6.13,6.29,3.71,3.72,3.72
75.87,-2.38,-6.04,-2.39,-6.05,6.06,6.19,3.68,3.67,3.66
76.63,-2.37,-5.97,-2.37,-5.98,5.99,6.10,3.62,3.62,3.60
77.40,-2.37,-5.92,-2.38,-5.92,5.93,6.00,3.56,3.56,3.55
78.17,-2.39,-5.87,-2.39,-5.87,5.88,5.90,3.49,3.49,3.48
78.95,-2.42,-5.84,-2.41,-5.83,5.82,5.80,3.40,3.41,3.42
79.74,-2.42,-5.78,-2.42,-5.78,5.76,5.69,3.34,3.34,3.36
80.54,-2.42,-5.71,-2.42,-5.72,5.70,5.59,3.28,3.28,3.29
81.35,-2.42,-5.65,-2.41,-5.64,5.63,5.48,3.21,3.22,3.23
82.16,-2.39,-5.55,-2.40,-5.56,5.55,5.37,3.16,3.16,3.16
82.98,-2.37,-5.47,-2.37,-5.46,5.47,5.27,3.09,3.10,3.10
83.81,-2.33,-5.36,-2.34,-5.36,5.37,5.16,3.04,3.03,3.03
84.65,-2.30,-5.25,-2.30,-5.26,5.26,5.05,2.96,2.96,2.95
85.50,-2.26,-5.15,-2.26,-5.15,5.14,4.93,2.88,2.88,2.89
86.35,-2.21,-5.03,-2.21,-5.03,5.02,4.82,2.81,2.81,2.82
87.22,-2.15,-4.90,-2.15,-4.90,4.89,4.71,2.74,2.74,2.74
88.09,-2.08,-4.75,-2.09,-4.76,4.76,4.59,2.68,2.67,2.67
88.97,-2.03,-4.63,-2.02,-4.62,4.62,4.48,2.59,2.60,2.60
89.86,-1.95,-4.47,-1.96,-4.48,4.48,4.36,2.53,2.52,2.52
90.76,-1.89,-4.33,-1.90,-4.34,4.34,4.24,2.45,2.44,2.44
91.66,-1.84,-4.20,-1.84,-4.19,4.19,4.13,2.35,2.36,2.36
92.58,-1.78,-4.05,-1.78,-4.05,4.05,4.01,2.27,2.28,2.27
93.51,-1.71,-3.91,-1.71,-3.91,3.91,3.89,2.20,2.20,2.20
94.44,-1.65,-3.77,-1.66,-3.78,3.78,3.77,2.13,2.12,2.12
95.39,-1.61,-3.65,-1.61,-3.64,3.64,3.65,2.03,2.04,2.03
96.34,-1.57,-3.52,-1.56,-3.51,3.51,3.53,1.94,1.95,1.95
97.30,-1.51,-3.37,-1.52,-3.38,3.38,3.41,1.87,1.86,1.86
98.28,-1.48,-3.25,-1.48,-3.25,3.26,3.30,1.77,1.78,1.77
99.26,-1.44,-3.13,-1.44,-3.13,3.13,3.18,1.69,1.69,1.69
100.25,-1.40,-3.01,-1.41,-3.01,3.01,3.06,1.61,1.60,1.61
101.25,-1.37,-2.89,-1.37,-2.89,2.89,2.94,1.52,1.52,1.52
102.27,-1.35,-2.78,-1.34,-2.77,2.77,2.82,1.42,1.43,1.43
103.29,-1.30,-2.64,-1.31,-2.65,2.65,2.70,1.35,1.34,1.34
104.32,-1.27,-2.53,-1.28,-2.54,2.54,2.58,1.27,1.26,1.26
105.37,-1.26,-2.44,-1.25,-2.42,2.42,2.46,1.16,1.18,1.17
106.42,-1.21,-2.30,-1.22,-2.31,2.31,2.35,1.10,1.09,1.09
107.48,-1.21,-2.21,-1.20,-2.20,2.20,2.23,0.99,1.00,1.00
108.56,-1.17,-2.08,-1.17,-2.08,2.09,2.11,0.91,0.91,0.91
109.64,-1.16,-1.98,-1.16,-1.98,1.97,2.00,0.81,0.82,0.82
110.74,-1.12,-1.85,-1.13,-1.86,1.86,1.88,0.74,0.73,0.73
111.85,-1.12,-1.77,-1.11,-1.75,1.75,1.77,0.63,0.64,0.65
112.97,-1.07,-1.62,-1.09,-1.64,1.64,1.65,0.57,0.55,0.55
114.10,-1.07,-1.53,-1.07,-1.52,1.52,1.54,0.45,0.46,0.46
115.24,-1.05,-1.41,-1.05,-1.41,1.41,1.43,0.36,0.37,0.36
116.39,-1.02,-1.30,-1.03,-1.30,1.30,1.32,0.28,0.27,0.28
117.55,-1.02,-1.20,-1.01,-1.19,1.20,1.21,0.17,0.19,0.18
118.73,-0.98,-1.07,-0.99,-1.09,1.09,1.10,0.11,0.10,0.09
119.92,-0.98,-0.99,-0.97,-0.98,0.98,0.99,0.00,0.01,0.01
121.12,-0.96,-0.88,-0.96,-0.88,0.88,0.88,-0.09,-0.08,-0.08
122.33,-0.93,-0.77,-0.94,-0.78,0.77,0.78,-0.16,-0.17,-0.16
123.55,-0.93,-0.68,-0.92,-0.67,0.67,0.67,-0.26,-0.25,-0.25
124.79,-0.88,-0.55,-0.90,-0.56,0.56,0.57,-0.32,-0.33,-0.33
126.03,-0.88,-0.46,-0.88,-0.46,0.46,0.47,-0.42,-0.42,-0.42
127.29,-0.86,-0.36,-0.86,-0.35,0.36,0.37,-0.51,-0.50,-0.50
128.57,-0.84,-0.25,-0.85,-0.26,0.26,0.27,-0.59,-0.60,-0.60
129.85,-0.84,-0.16,-0.83,-0.16,0.16,0.17,-0.68,-0.68,-0.68
131.15,-0.83,-0.07,-0.82,-0.06,0.06,0.07,-0.77,-0.76,-0.76
132.46,-0.79,0.05,-0.80,0.04,-0.03,-0.02,-0.82,-0.84,-0.84
133.79,-0.79,0.12,-0.80,0.12,-0.12,-0.11,-0.91,-0.92,-0.91
135.12,-0.79,0.20,-0.79,0.21,-0.21,-0.20,-1.00,-0.99,-0.99
136.48,-0.79,0.27,-0.78,0.29,-0.29,-0.29,-1.09,-1.07,-1.06
137.84,-0.75,0.39,-0.76,0.38,-0.38,-0.38,-1.13,-1.14,-1.14
139.22,-0.75,0.47,-0.75,0.47,-0.46,-0.47,-1.21,-1.21,-1.22
140.61,-0.75,0.54,-0.75,0.54,-0.54,-0.55,-1.29,-1.29,-1.29
142.02,-0.75,0.60,-0.75,0.61,-0.62,-0.63,-1.37,-1.36,-1.35
143.44,-0.74,0.68,-0.73,0.69,-0.69,-0.71,-1.43,-1.42,-1.42
144.87,-0.70,0.78,-0.71,0.77,-0.77,-0.78,-1.47,-1.48,-1.49
146.32,-0.70,0.85,-0.70,0.85,-0.84,-0.86,-1.54,-1.54,-1.55
147.78,-0.70,0.91,-0.70,0.91,-0.90,-0.93,-1.60,-1.60,-1.61
149.26,-0.70,0.97,-0.70,0.97,-0.97,-1.00,-1.67,-1.67,-1.67
150.75,-0.70,1.04,-0.70,1.03,-1.04,-1.06,-1.74,-1.74,-1.74
152.26,-0.70,1.10,-0.70,1.10,-1.11,-1.12,-1.81,-1.81,-1.80
153.78,-0.70,1.16,-0.70,1.17,-1.18,-1.19,-1.88,-1.88,-1.87
155.32,-0.68,1.25,-0.69,1.24,-1.25,-1.25,-1.93,-1.94,-1.93
156.88,-0.68,1.31,-0.67,1.32,-1.32,-1.31,-2.00,-1.99,-1.99
158.44,-0.65,1.40,-0.66,1.39,-1.39,-1.36,-2.04,-2.04,-2.05
160.03,-0.65,1.46,-0.65,1.47,-1.45,-1.42,-2.10,-2.10,-2.11
161.63,-0.65,1.52,-0.65,1.53,-1.51,-1.48,-2.16,-2.16,-2.17
163.24,-0.65,1.58,-0.66,1.57,-1.57,-1.54,-2.22,-2.23,-2.24
164.88,-0.68,1.60,-0.67,1.62,-1.62,-1.60,-2.30,-2.29,-2.28
166.53,-0.68,1.66,-0.69,1.66,-1.67,-1.66,-2.35,-2.36,-2.34
168.19,-0.70,1.70,-0.70,1.71,-1.72,-1.72,-2.42,-2.42,-2.40
169.87,-0.70,1.76,-0.70,1.76,-1.77,-1.78,-2.47,-2.47,-2.46
171.57,-0.70,1.82,-0.70,1.81,-1.81,-1.84,-2.51,-2.51,-2.52
173.29,-0.70,1.87,-0.70,1.87,-1.86,-1.90,-2.56,-2.56,-2.57
175.02,-0.70,1.92,-0.71,1.91,-1.91,-1.95,-2.61,-2.61,-2.62
176.77,-0.72,1.96,-0.72,1.95,-1.95,-2.00,-2.67,-2.68,-2.68
178.54,-0.75,1.98,-0.74,1.99,-2.00,-2.06,-2.75,-2.74,-2.73
180.32,-0.75,2.04,-0.75,2.04,-2.04,-2.11,-2.79,-2.79,-2.79
182.13,-0.75,2.08,-0.75,2.08,-2.09,-2.15,-2.84,-2.84,-2.83
183.95,-0.75,2.14,-0.75,2.14,-2.13,-2.20,-2.88,-2.88,-2.89
185.79,-0.75,2.18,-0.75,2.19,-2.18,-2.24,-2.93,-2.93,-2.93
187.65,-0.75,2.24,-0.75,2.23,-2.23,-2.28,-2.99,-2.99,-2.99
189.52,-0.75,2.28,-0.75,2.28,-2.29,-2.32,-3.04,-3.04,-3.03
191.42,-0.75,2.32,-0.74,2.33,-2.34,-2.35,-3.09,-3.08,-3.07
193.33,-0.72,2.39,-0.72,2.39,-2.39,-2.39,-3.11,-3.12,-3.11
195.27,-0.70,2.46,-0.71,2.45,-2.44,-2.42,-3.14,-3.15,-3.16
197.22,-0.70,2.50,-0.70,2.50,-2.49,-2.45,-3.19,-3.19,-3.20
199.19,-0.70,2.54,-0.70,2.54,-2.53,-2.47,-3.23,-3.23,-3.24
201.18,-0.70,2.57,-0.70,2.57,-2.57,-2.50,-3.27,-3.27,-3.27
203.19,-0.70,2.60,-0.70,2.60,-2.60,-2.52,-3.30,-3.30,-3.30
205.23,-0.70,2.63,-0.70,2.63,-2.63,-2.54,-3.33,-3.33,-3.33
207.28,-0.70,2.65,-0.70,2.65,-2.66,-2.57,-3.36,-3.36,-3.35
209.35,-0.70,2.68,-0.70,2.68,-2.68,-2.58,-3.38,-3.38,-3.38
211.44,-0.70,2.71,-0.70,2.70,-2.71,-2.60,-3.41,-3.41,-3.41
213.56,-0.70,2.73,-0.70,2.72,-2.73,-2.61,-3.43,-3.43,-3.43
215.69,-0.70,2.74,-0.70,2.74,-2.74,-2.63,-3.44,-3.44,-3.44
217.85,-0.70,2.75,-0.70,2.76,-2.75,-2.64,-3.46,-3.45,-3.45
220.03,-0.70,2.77,-0.70,2.77,-2.76,-2.65,-3.46,-3.46,-3.47
222.23,-0.70,2.79,-0.71,2.78,-2.77,-2.66,-3.47,-3.48,-3.49
224.45,-0.72,2.78,-0.72,2.78,-2.77,-2.67,-3.49,-3.50,-3.50
226.70,-0.75,2.75,-0.74,2.77,-2.77,-2.67,-3.52,-3.51,-3.51
228.96,-0.75,2.76,-0.75,2.76,-2.77,-2.68,-3.52,-3.52,-3.51
231.25,-0.75,2.76,-0.75,2.76,-2.77,-2.68,-3.52,-3.52,-3.51
233.57,-0.75,2.76,-0.75,2.77,-2.77,-2.68,-3.52,-3.52,-3.52
235.90,-0.75,2.77,-0.75,2.77,-2.76,-2.68,-3.52,-3.52,-3.52
238.26,-0.75,2.77,-0.75,2.77,-2.76,-2.68,-3.51,-3.51,-3.52
240.64,-0.75,2.76,-0.75,2.76,-2.76,-2.68,-3.51,-3.51,-3.51
243.05,-0.75,2.76,-0.75,2.76,-2.76,-2.68,-3.51,-3.51,-3.51
245.48,-0.75,2.75,-0.75,2.75,-2.76,-2.68,-3.51,-3.51,-3.50
247.93,-0.75,2.75,-0.75,2.75,-2.75,-2.67,-3.50,-3.50,-3.50
250.41,-0.75,2.74,-0.75,2.74,-2.74,-2.67,-3.49,-3.49,-3.50
252.92,-0.75,2.73,-0.75,2.73,-2.73,-2.66,-3.48,-3.48,-3.48
255.45,-0.75,2.71,-0.75,2.72,-2.72,-2.65,-3.47,-3.47,-3.46
258.00,-0.75,2.71,-0.75,2.71,-2.71,-2.64,-3.46,-3.46,-3.46
260.58,-0.75,2.69,-0.75,2.69,-2.69,-2.63,-3.44,-3.44,-3.44
263.19,-0.75,2.68,-0.75,2.68,-2.68,-2.62,-3.43,-3.43,-3.43
265.82,-0.75,2.66,-0.75,2.66,-2.66,-2.61,-3.41,-3.41,-3.41
268.48,-0.75,2.65,-0.75,2.65,-2.64,-2.60,-3.39,-3.39,-3.40
271.16,-0.75,2.63,-0.75,2.63,-2.63,-2.59,-3.38,-3.38,-3.38
273.87,-0.75,2.61,-0.76,2.61,-2.61,-2.58,-3.36,-3.36,-3.36
276.61,-0.77,2.58,-0.76,2.58,-2.58,-2.56,-3.35,-3.35,-3.35
279.38,-0.77,2.56,-0.77,2.56,-2.56,-2.55,-3.33,-3.33,-3.33
282.17,-0.77,2.54,-0.77,2.54,-2.54,-2.53,-3.31,-3.31,-3.31
284.99,-0.77,2.53,-0.78,2.52,-2.52,-2.52,-3.29,-3.30,-3.30
287.84,-0.79,2.49,-0.78,2.50,-2.50,-2.50,-3.29,-3.28,-3.28
290.72,-0.79,2.47,-0.79,2.47,-2.48,-2.49,-3.27,-3.27,-3.26
293.63,-0.79,2.45,-0.79,2.45,-2.46,-2.47,-3.25,-3.25,-3.25
296.57,-0.79,2.44,-0.79,2.44,-2.44,-2.45,-3.23,-3.23,-3.23
299.53,-0.79,2.42,-0.79,2.42,-2.41,-2.44,-3.21,-3.21,-3.21
302.53,-0.79,2.40,-0.79,2.40,-2.39,-2.42,-3.18,-3.18,-3.19
305.55,-0.79,2.37,-0.79,2.38,-2.36,-2.40,-3.15,-3.16,-3.17
308.61,-0.79,2.36,-0.81,2.34,-2.33,-2.38,-3.12,-3.14,-3.15
311.69,-0.84,2.28,-0.82,2.30,-2.30,-2.36,-3.14,-3.13,-3.12
314.81,-0.84,2.25,-0.84,2.26,-2.27,-2.34,-3.11,-3.11,-3.09
317.96,-0.84,2.23,-0.84,2.23,-2.24,-2.32,-3.08,-3.08,-3.07
321.14,-0.84,2.22,-0.84,2.21,-2.21,-2.30,-3.05,-3.05,-3.06
324.35,-0.84,2.20,-0.85,2.18,-2.18,-2.28,-3.02,-3.03,-3.04
327.59,-0.88,2.14,-0.87,2.15,-2.16,-2.26,-3.04,-3.02,-3.02
330.87,-0.88,2.12,-0.88,2.12,-2.13,-2.24,-3.01,-3.01,-3.00
334.18,-0.88,2.10,-0.88,2.10,-2.11,-2.22,-2.99,-2.99,-2.98
337.52,-0.88,2.08,-0.88,2.09,-2.08,-2.20,-2.96,-2.96,-2.97
340.90,-0.88,2.07,-0.88,2.07,-2.05,-2.18,-2.93,-2.93,-2.95
344.30,-0.88,2.05,-0.89,2.04,-2.03,-2.16,-2.91,-2.92,-2.93
347.75,-0.91,2.00,-0.91,2.00,-2.00,-2.14,-2.91,-2.91,-2.91
351.23,-0.93,1.96,-0.92,1.97,-1.98,-2.12,-2.91,-2.90,-2.89
354.74,-0.93,1.94,-0.93,1.94,-1.96,-2.10,-2.89,-2.89,-2.87
358.28,-0.93,1.93,-0.93,1.93,-1.93,-2.08,-2.86,-2.87,-2.86
361.87,-0.93,1.92,-0.93,1.92,-1.91,-2.06,-2.84,-2.84,-2.85
365.49,-0.93,1.90,-0.93,1.90,-1.90,-2.03,-2.83,-2.83,-2.83
369.14,-0.93,1.89,-0.93,1.88,-1.88,-2.01,-2.81,-2.81,-2.82
372.83,-0.93,1.87,-0.93,1.87,-1.87,-1.99,-2.80,-2.80,-2.80
376.56,-0.93,1.86,-0.93,1.86,-1.86,-1.97,-2.79,-2.79,-2.79
380.33,-0.93,1.84,-0.93,1.84,-1.85,-1.95,-2.78,-2.78,-2.77
384.13,-0.93,1.83,-0.93,1.83,-1.83,-1.93,-2.77,-2.77,-2.76
387.97,-0.93,1.82,-0.93,1.82,-1.82,-1.91,-2.75,-2.75,-2.75
391.85,-0.93,1.81,-0.93,1.81,-1.81,-1.89,-2.74,-2.74,-2.74
395.77,-0.93,1.79,-0.93,1.80,-1.79,-1.87,-2.72,-2.73,-2.73
399.73,-0.93,1.79,-0.94,1.78,-1.78,-1.85,-2.71,-2.72,-2.72
403.72,-0.95,1.76,-0.94,1.77,-1.76,-1.83,-2.71,-2.70,-2.71
407.76,-0.95,1.75,-0.95,1.75,-1.75,-1.81,-2.70,-2.70,-2.70
411.84,-0.95,1.74,-0.96,1.73,-1.73,-1.79,-2.68,-2.69,-2.69
415.96,-0.98,1.70,-0.97,1.71,-1.71,-1.77,-2.69,-2.68,-2.68
420.12,-0.98,1.69,-0.98,1.69,-1.70,-1.75,-2.68,-2.68,-2.67
424.32,-0.98,1.68,-0.98,1.68,-1.68,-1.73,-2.66,-2.67,-2.66
428.56,-0.98,1.67,-0.98,1.67,-1.67,-1.71,-2.65,-2.65,-2.65
432.85,-0.98,1.66,-0.98,1.66,-1.66,-1.69,-2.64,-2.64,-2.64
437.18,-0.98,1.65,-0.98,1.65,-1.64,-1.68,-2.62,-2.62,-2.63
441.55,-0.98,1.63,-0.98,1.64,-1.63,-1.66,-2.61,-2.61,-2.61
445.96,-0.98,1.62,-0.98,1.62,-1.62,-1.64,-2.60,-2.60,-2.60
450.42,-0.98,1.61,-0.98,1.61,-1.62,-1.62,-2.60,-2.60,-2.60
454.93,-0.98,1.60,-0.98,1.60,-1.61,-1.61,-2.59,-2.59,-2.58
459.48,-0.98,1.59,-0.97,1.59,-1.60,-1.59,-2.58,-2.57,-2.57
464.07,-0.95,1.61,-0.96,1.59,-1.60,-1.58,-2.55,-2.56,-2.56
468.71,-0.95,1.59,-0.95,1.59,-1.59,-1.56,-2.54,-2.53,-2.54
473.40,-0.93,1.60,-0.93,1.59,-1.58,-1.55,-2.51,-2.52,-2.53
478.13,-0.93,1.58,-0.93,1.58,-1.57,-1.53,-2.50,-2.50,-2.51
482.91,-0.93,1.57,-0.93,1.57,-1.56,-1.52,-2.49,-2.49,-2.50
487.74,-0.93,1.55,-0.93,1.55,-1.55,-1.50,-2.48,-2.48,-2.48
492.62,-0.93,1.53,-0.93,1.53,-1.54,-1.49,-2.47,-2.47,-2.46
497.55,-0.93,1.52,-0.93,1.52,-1.52,-1.48,-2.45,-2.45,-2.45
502.52,-0.93,1.50,-0.93,1.50,-1.50,-1.47,-2.43,-2.43,-2.43
507.55,-0.93,1.49,-0.93,1.49,-1.48,-1.46,-2.41,-2.41,-2.42
512.62,-0.93,1.47,-0.93,1.47,-1.47,-1.45,-2.40,-2.40,-2.40
517.75,-0.93,1.45,-0.93,1.45,-1.45,-1.44,-2.38,-2.38,-2.38
522.93,-0.93,1.43,-0.94,1.43,-1.44,-1.43,-2.37,-2.38,-2.36
528.16,-0.93,1.42,-0.93,1.42,-1.43,-1.42,-2.36,-2.36,-2.35
533.44,-0.93,1.40,-0.91,1.42,-1.42,-1.41,-2.35,-2.33,-2.33
538.77,-0.88,1.43,-0.90,1.42,-1.41,-1.40,-2.29,-2.31,-2.31
544.16,-0.88,1.41,-0.89,1.41,-1.40,-1.40,-2.28,-2.29,-2.29
549.60,-0.88,1.39,-0.87,1.40,-1.40,-1.39,-2.28,-2.27,-2.27
555.10,-0.88,1.38,-0.87,1.39,-1.39,-1.39,-2.27,-2.26,-2.26
560.65,-0.84,1.40,-0.85,1.39,-1.39,-1.38,-2.23,-2.24,-2.24
566.25,-0.84,1.38,-0.85,1.38,-1.38,-1.38,-2.23,-2.23,-2.22
