frequency,raw,error,smoothed,error_smoothed,equalization,parametric_eq,equalized_raw,equalized_smoothed,target
20.00,-10.18,-15.67,-10.19,-15.68,15.69,15.63,5.51,5.50,5.49
20.20,-10.13,-15.60,-10.13,-15.60,15.60,15.55,5.47,5.47,5.47
20.40,-10.09,-15.53,-10.07,-15.51,15.50,15.48,5.41,5.43,5.44
20.61,-9.98,-15.40,-9.99,-15.41,15.40,15.39,5.42,5.41,5.42
20.81,-9.91,-15.30,-9.91,-15.30,15.30,15.31,5.39,5.39,5.39
21.02,-9.81,-15.18,-9.82,-15.18,15.19,15.21,5.38,5.37,5.37
21.23,-9.74,-15.09,-9.74,-15.08,15.08,15.11,5.34,5.34,5.35
21.44,-9.64,-14.95,-9.65,-14.97,14.97,15.00,5.33,5.32,5.31
21.66,-9.57,-14.87,-9.56,-14.85,14.85,14.89,5.28,5.29,5.29
21.87,-9.46,-14.72,-9.46,-14.73,14.72,14.76,5.27,5.26,5.26
22.09,-9.36,-14.60,-9.37,-14.61,14.60,14.63,5.24,5.23,5.24
22.31,-9.27,-14.49,-9.26,-14.48,14.47,14.49,5.21,5.21,5.22
22.54,-9.16,-14.35,-9.16,-14.35,14.35,14.36,5.19,5.19,5.19
22.76,-9.05,-14.22,-9.05,-14.22,14.22,14.22,5.17,5.17,5.17
22.99,-8.94,-14.09,-8.95,-14.09,14.10,14.09,5.16,5.15,5.15
23.22,-8.85,-13.98,-8.85,-13.97,13.98,13.98,5.13,5.13,5.12
23.45,-8.75,-13.85,-8.76,-13.86,13.86,13.86,5.11,5.11,5.10
23.69,-8.67,-13.74,-8.67,-13.75,13.75,13.77,5.08,5.08,5.07
23.92,-8.60,-13.65,-8.59,-13.64,13.65,13.68,5.05,5.06,5.05
24.16,-8.52,-13.55,-8.52,-13.55,13.55,13.60,5.03,5.03,5.03
24.40,-8.44,-13.45,-8.45,-13.46,13.45,13.52,5.01,5.00,5.01
24.65,-8.39,-13.38,-8.38,-13.37,13.36,13.42,4.97,4.98,4.99
24.89,-8.31,-13.27,-8.31,-13.27,13.27,13.32,4.96,4.97,4.97
25.14,-8.23,-13.17,-8.24,-13.19,13.18,13.21,4.95,4.95,4.94
25.39,-8.16,-13.09,-8.16,-13.09,13.10,13.09,4.94,4.93,4.93
25.65,-8.10,-13.02,-8.09,-13.01,13.01,12.96,4.91,4.92,4.92
25.91,-8.00,-12.91,-8.01,-12.92,12.92,12.83,4.92,4.91,4.91
26.16,-7.93,-12.83,-7.93,-12.82,12.83,12.72,4.90,4.90,4.90
26.43,-7.84,-12.73,-7.84,-12.73,12.73,12.61,4.89,4.89,4.89
26.69,-7.76,-12.64,-7.77,-12.64,12.64,12.53,4.88,4.87,4.87
26.96,-7.69,-12.55,-7.69,-12.54,12.54,12.45,4.84,4.85,4.86
27.23,-7.61,-12.44,-7.61,-12.44,12.43,12.39,4.82,4.82,4.83
27.50,-7.52,-12.32,-7.53,-12.33,12.32,12.32,4.80,4.80,4.80
27.77,-7.45,-12.22,-7.44,-12.21,12.21,12.25,4.76,4.77,4.77
28.05,-7.35,-12.09,-7.36,-12.10,12.10,12.18,4.75,4.74,4.74
28.33,-7.29,-11.99,-7.28,-11.98,11.99,12.08,4.70,4.71,4.70
28.62,-7.20,-11.88,-7.20,-11.88,11.88,11.98,4.68,4.68,4.67
28.90,-7.12,-11.76,-7.13,-11.77,11.78,11.85,4.66,4.65,4.64
29.19,-7.06,-11.68,-7.05,-11.67,11.67,11.73,4.61,4.62,4.62
29.48,-6.97,-11.57,-6.97,-11.57,11.57,11.59,4.60,4.60,4.60
29.78,-6.89,-11.48,-6.90,-11.48,11.47,11.45,4.58,4.58,4.59
30.08,-6.82,-11.39,-6.81,-11.37,11.38,11.33,4.55,4.56,4.56
30.38,-6.73,-11.27,-6.74,-11.28,11.28,11.21,4.55,4.54,4.54
30.68,-6.65,-11.17,-6.66,-11.18,11.18,11.11,4.53,4.52,4.52
30.99,-6.59,-11.09,-6.58,-11.08,11.08,11.01,4.49,4.50,4.50
31.30,-6.50,-10.97,-6.51,-10.97,10.97,10.94,4.47,4.47,4.46
31.61,-6.44,-10.87,-6.44,-10.87,10.87,10.86,4.43,4.43,4.43
31.93,-6.36,-10.76,-6.36,-10.76,10.76,10.78,4.40,4.39,4.40
32.24,-6.29,-10.66,-6.29,-10.65,10.65,10.70,4.36,4.36,4.37
32.57,-6.21,-10.54,-6.21,-10.54,10.53,10.60,4.32,4.32,4.33
32.89,-6.12,-10.40,-6.13,-10.41,10.41,10.49,4.29,4.28,4.28
33.22,-6.06,-10.30,-6.05,-10.29,10.29,10.35,4.23,4.24,4.24
33.55,-5.96,-10.16,-5.97,-10.17,10.17,10.21,4.21,4.20,4.20
33.89,-5.89,-10.06,-5.89,-10.05,10.05,10.06,4.16,4.16,4.16
34.23,-5.81,-9.93,-5.81,-9.93,9.94,9.90,4.13,4.13,4.12
34.57,-5.72,-9.81,-5.73,-9.82,9.83,9.76,4.11,4.10,4.09
34.92,-5.66,-9.72,-5.66,-9.72,9.73,9.62,4.07,4.07,4.06
35.27,-5.59,-9.64,-5.59,-9.62,9.63,9.52,4.04,4.05,4.04
35.62,-5.51,-9.53,-5.52,-9.54,9.54,9.43,4.03,4.02,4.02
35.97,-5.45,-9.46,-5.45,-9.46,9.45,9.38,4.00,4.00,4.01
36.33,-5.39,-9.38,-5.39,-9.38,9.37,9.33,3.98,3.99,3.99
36.70,-5.32,-9.29,-5.32,-9.30,9.30,9.29,3.97,3.97,3.97
37.06,-5.26,-9.22,-5.26,-9.22,9.22,9.25,3.96,3.96,3.96
37.43,-5.20,-9.14,-5.20,-9.14,9.14,9.20,3.94,3.94,3.94
37.81,-5.14,-9.07,-5.14,-9.07,9.07,9.15,3.93,3.93,3.93
38.19,-5.08,-9.00,-5.08,-8.99,8.99,9.08,3.91,3.91,3.92
38.57,-5.01,-8.91,-5.01,-8.92,8.92,9.00,3.91,3.90,3.90
38.95,-4.95,-8.84,-4.95,-8.84,8.84,8.91,3.89,3.89,3.89
39.34,-4.89,-8.76,-4.89,-8.76,8.77,8.81,3.88,3.88,3.87
39.74,-4.83,-8.69,-4.83,-8.69,8.69,8.71,3.86,3.86,3.86
40.14,-4.76,-8.61,-4.76,-8.61,8.61,8.60,3.85,3.85,3.85
40.54,-4.70,-8.53,-4.70,-8.53,8.53,8.50,3.83,3.83,3.83
40.94,-4.64,-8.46,-4.64,-8.46,8.45,8.40,3.81,3.81,3.82
41.35,-4.58,-8.37,-4.58,-8.37,8.37,8.30,3.79,3.79,3.79
41.76,-4.52,-8.29,-4.52,-8.29,8.28,8.21,3.76,3.77,3.77
42.18,-4.45,-8.19,-4.45,-8.20,8.20,8.13,3.75,3.75,3.74
42.60,-4.39,-8.12,-4.39,-8.11,8.12,8.06,3.73,3.73,3.73
43.03,-4.33,-8.03,-4.33,-8.03,8.04,7.99,3.71,3.71,3.70
43.46,-4.27,-7.95,-4.27,-7.95,7.96,7.93,3.69,3.69,3.68
43.90,-4.21,-7.87,-4.22,-7.88,7.88,7.87,3.67,3.66,3.66
44.33,-4.17,-7.81,-4.17,-7.80,7.80,7.82,3.63,3.64,3.64
44.78,-4.12,-7.74,-4.11,-7.73,7.73,7.76,3.61,3.62,3.62
45.23,-4.06,-7.65,-4.06,-7.66,7.66,7.70,3.60,3.60,3.59
45.68,-4.00,-7.58,-4.01,-7.58,7.58,7.64,3.58,3.58,3.58
46.13,-3.96,-7.51,-3.96,-7.51,7.51,7.57,3.55,3.55,3.55
46.60,-3.91,-7.44,-3.91,-7.44,7.43,7.50,3.52,3.53,3.53
47.06,-3.85,-7.36,-3.86,-7.36,7.35,7.41,3.50,3.50,3.51
47.53,-3.80,-7.27,-3.80,-7.28,7.27,7.32,3.47,3.47,3.47
48.01,-3.75,-7.19,-3.75,-7.19,7.19,7.22,3.44,3.44,3.44
48.49,-3.70,-7.10,-3.70,-7.10,7.10,7.12,3.40,3.40,3.40
48.97,-3.66,-7.02,-3.66,-7.01,7.01,7.01,3.35,3.35,3.36
49.46,-3.61,-6.92,-3.61,-6.92,6.92,6.89,3.31,3.30,3.31
49.96,-3.57,-6.83,-3.57,-6.83,6.83,6.79,3.25,3.25,3.26
50.46,-3.54,-6.74,-3.53,-6.73,6.74,6.68,3.19,3.20,3.20
50.96,-3.49,-6.63,-3.50,-6.65,6.65,6.59,3.16,3.15,3.14
51.47,-3.46,-6.56,-3.46,-6.56,6.57,6.52,3.11,3.10,3.10
51.99,-3.45,-6.50,-3.44,-6.49,6.49,6.46,3.04,3.06,3.05
52.51,-3.40,-6.41,-3.41,-6.43,6.43,6.42,3.03,3.01,3.01
53.03,-3.40,-6.37,-3.39,-6.36,6.37,6.39,2.97,2.98,2.97
53.56,-3.36,-6.31,-3.37,-6.32,6.33,6.37,2.97,2.96,2.95
54.10,-3.35,-6.28,-3.35,-6.29,6.29,6.35,2.94,2.94,2.93
54.64,-3.35,-6.28,-3.34,-6.26,6.27,6.33,2.92,2.93,2.93
55.18,-3.31,-6.23,-3.32,-6.24,6.25,6.31,2.94,2.93,2.92
55.74,-3.31,-6.24,-3.30,-6.23,6.23,6.28,2.92,2.93,2.93
56.29,-3.27,-6.21,-3.28,-6.22,6.22,6.24,2.95,2.94,2.93
56.86,-3.26,-6.21,-3.26,-6.21,6.21,6.21,2.95,2.95,2.95
57.42,-3.25,-6.21,-3.24,-6.20,6.19,6.16,2.94,2.95,2.96
58.00,-3.21,-6.17,-3.22,-6.18,6.16,6.12,2.95,2.94,2.96
58.58,-3.21,-6.15,-3.20,-6.14,6.13,6.07,2.92,2.93,2.94
59.16,-3.17,-6.09,-3.18,-6.09,6.09,6.01,2.92,2.91,2.92
59.76,-3.17,-6.05,-3.16,-6.04,6.03,5.96,2.86,2.87,2.88
60.35,-3.12,-5.96,-3.13,-5.97,5.97,5.90,2.85,2.84,2.84
60.96,-3.12,-5.91,-3.11,-5.90,5.90,5.84,2.78,2.79,2.79
61.57,-3.07,-5.82,-3.08,-5.82,5.83,5.78,2.76,2.75,2.75
62.18,-3.07,-5.76,-3.06,-5.75,5.75,5.72,2.68,2.69,2.69
62.80,-3.03,-5.66,-3.04,-5.67,5.67,5.66,2.64,2.63,2.63
63.43,-3.03,-5.61,-3.02,-5.59,5.60,5.60,2.56,2.58,2.58
64.07,-2.98,-5.50,-2.99,-5.51,5.52,5.53,2.54,2.53,2.52
64.71,-2.97,-5.44,-2.96,-5.44,5.45,5.47,2.48,2.48,2.47
65.35,-2.93,-5.37,-2.93,-5.37,5.37,5.41,2.44,2.45,2.44
66.01,-2.89,-5.30,-2.90,-5.31,5.31,5.34,2.41,2.41,2.41
66.67,-2.86,-5.24,-2.86,-5.24,5.24,5.28,2.38,2.38,2.38
67.33,-2.82,-5.18,-2.82,-5.17,5.17,5.21,2.35,2.35,2.36
68.01,-2.77,-5.10,-2.77,-5.11,5.10,5.15,2.33,2.33,2.33
68.69,-2.72,-5.03,-2.73,-5.03,5.03,5.08,2.31,2.31,2.31
69.37,-2.69,-4.98,-2.68,-4.97,4.96,5.02,2.27,2.28,2.29
70.07,-2.63,-4.88,-2.64,-4.89,4.89,4.95,2.26,2.25,2.25
70.77,-2.60,-4.83,-2.60,-4.82,4.82,4.88,2.22,2.22,2.23
71.48,-2.55,-4.74,-2.55,-4.74,4.74,4.82,2.19,2.19,2.19
72.19,-2.52,-4.67,-2.52,-4.67,4.67,4.75,2.15,2.15,2.15
72.91,-2.48,-4.60,-2.48,-4.59,4.59,4.68,2.11,2.12,2.12
73.64,-2.45,-4.52,-2.45,-4.53,4.52,4.62,2.07,2.07,2.07
74.38,-2.42,-4.45,-2.43,-4.46,4.45,4.55,2.03,2.03,2.03
75.12,-2.42,-4.40,-2.41,-4.39,4.39,4.48,1.97,1.99,1.98
75.87,-2.38,-4.32,-2.39,-4.33,4.34,4.41,1.95,1.95,1.94
76.63,-2.37,-4.27,-2.37,-4.27,4.29,4.34,1.92,1.91,1.90
77.40,-2.37,-4.22,-2.38,-4.22,4.24,4.27,1.87,1.87,1.85
78.17,-2.39,-4.19,-2.39,-4.19,4.20,4.19,1.81,1.81,1.80
78.95,-2.42,-4.18,-2.41,-4.17,4.16,4.12,1.74,1.75,1.76
79.74,-2.42,-4.13,-2.42,-4.14,4.12,4.04,1.70,1.70,1.71
80.54,-2.42,-4.09,-2.42,-4.09,4.08,3.97,1.66,1.65,1.67
81.35,-2.42,-4.04,-2.41,-4.04,4.03,3.89,1.60,1.61,1.62
82.16,-2.39,-3.97,-2.40,-3.97,3.96,3.81,1.57,1.57,1.58
82.98,-2.37,-3.89,-2.37,-3.89,3.89,3.73,1.52,1.52,1.52
83.81,-2.33,-3.79,-2.34,-3.80,3.80,3.64,1.47,1.46,1.46
84.65,-2.30,-3.70,-2.30,-3.70,3.69,3.56,1.39,1.39,1.40
85.50,-2.26,-3.60,-2.26,-3.59,3.58,3.47,1.32,1.32,1.34
86.35,-2.21,-3.47,-2.21,-3.47,3.45,3.38,1.24,1.24,1.26
87.22,-2.15,-3.33,-2.15,-3.33,3.32,3.28,1.17,1.17,1.18
88.09,-2.08,-3.17,-2.09,-3.18,3.18,3.18,1.10,1.09,1.09
88.97,-2.03,-3.04,-2.02,-3.03,3.04,3.08,1.01,1.02,1.01
89.86,-1.95,-2.88,-1.96,-2.88,2.90,2.97,0.95,0.94,0.93
90.76,-1.89,-2.75,-1.90,-2.76,2.76,2.86,0.87,0.87,0.85
91.66,-1.84,-2.64,-1.84,-2.63,2.64,2.75,0.80,0.80,0.80
92.58,-1.78,-2.53,-1.78,-2.52,2.53,2.64,0.74,0.75,0.75
93.51,-1.71,-2.42,-1.71,-2.42,2.43,2.52,0.72,0.71,0.70
94.44,-1.65,-2.32,-1.66,-2.33,2.34,2.42,0.69,0.68,0.67
95.39,-1.61,-2.26,-1.61,-2.26,2.27,2.32,0.66,0.66,0.65
96.34,-1.57,-2.21,-1.56,-2.20,2.21,2.23,0.64,0.65,0.64
97.30,-1.51,-2.14,-1.52,-2.16,2.16,2.14,0.65,0.64,0.63
98.28,-1.48,-2.11,-1.48,-2.11,2.11,2.08,0.63,0.63,0.63
99.26,-1.44,-2.08,-1.44,-2.07,2.06,2.02,0.62,0.63,0.64
100.25,-1.40,-2.03,-1.41,-2.04,2.02,1.97,0.62,0.61,0.63
101.25,-1.37,-1.99,-1.37,-1.99,1.98,1.94,0.60,0.60,0.62
102.27,-1.35,-1.96,-1.34,-1.94,1.93,1.90,0.58,0.59,0.61
103.29,-1.30,-1.87,-1.31,-1.88,1.88,1.88,0.58,0.57,0.57
104.32,-1.27,-1.81,-1.28,-1.82,1.83,1.85,0.56,0.56,0.54
105.37,-1.26,-1.78,-1.25,-1.77,1.79,1.82,0.52,0.54,0.52
106.42,-1.21,-1.72,-1.22,-1.73,1.74,1.78,0.53,0.51,0.51
107.48,-1.21,-1.70,-1.20,-1.69,1.69,1.74,0.48,0.49,0.49
108.56,-1.17,-1.64,-1.17,-1.65,1.65,1.70,0.47,0.47,0.47
109.64,-1.16,-1.61,-1.16,-1.61,1.60,1.65,0.44,0.44,0.45
110.74,-1.12,-1.55,-1.13,-1.56,1.56,1.60,0.44,0.43,0.43
111.85,-1.12,-1.53,-1.11,-1.51,1.51,1.55,0.39,0.40,0.41
112.97,-1.07,-1.45,-1.09,-1.47,1.46,1.49,0.39,0.38,0.38
114.10,-1.07,-1.42,-1.07,-1.41,1.41,1.42,0.34,0.34,0.35
115.24,-1.05,-1.36,-1.05,-1.36,1.36,1.36,0.30,0.31,0.31
116.39,-1.02,-1.29,-1.03,-1.30,1.30,1.29,0.28,0.27,0.26
117.55,-1.02,-1.25,-1.01,-1.24,1.24,1.22,0.22,0.23,0.23
118.73,-0.98,-1.17,-0.99,-1.18,1.18,1.16,0.20,0.19,0.19
119.92,-0.98,-1.13,-0.97,-1.12,1.12,1.09,0.14,0.15,0.15
121.12,-0.96,-1.07,-0.96,-1.06,1.06,1.03,0.10,0.10,0.11
122.33,-0.93,-0.99,-0.94,-1.00,1.00,0.98,0.07,0.06,0.06
123.55,-0.93,-0.95,-0.92,-0.93,0.94,0.93,0.01,0.02,0.01
124.79,-0.88,-0.86,-0.90,-0.87,0.88,0.88,-0.00,-0.02,-0.02
126.03,-0.88,-0.82,-0.88,-0.82,0.82,0.83,-0.06,-0.06,-0.06
127.29,-0.86,-0.76,-0.86,-0.76,0.76,0.78,-0.10,-0.10,-0.10
128.57,-0.84,-0.70,-0.85,-0.71,0.70,0.73,-0.14,-0.15,-0.15
129.85,-0.84,-0.65,-0.83,-0.65,0.64,0.67,-0.20,-0.19,-0.19
131.15,-0.83,-0.60,-0.82,-0.58,0.58,0.62,-0.25,-0.24,-0.23
132.46,-0.79,-0.51,-0.80,-0.52,0.52,0.56,-0.27,-0.28,-0.28
133.79,-0.79,-0.45,-0.80,-0.46,0.46,0.50,-0.33,-0.34,-0.34
135.12,-0.79,-0.40,-0.79,-0.40,0.40,0.43,-0.39,-0.39,-0.39
136.48,-0.79,-0.35,-0.78,-0.34,0.34,0.36,-0.45,-0.44,-0.44
137.84,-0.75,-0.26,-0.76,-0.27,0.28,0.29,-0.47,-0.49,-0.49
139.22,-0.75,-0.21,-0.75,-0.21,0.22,0.22,-0.53,-0.54,-0.54
140.61,-0.75,-0.16,-0.75,-0.16,0.15,0.15,-0.60,-0.60,-0.59
142.02,-0.75,-0.11,-0.75,-0.11,0.09,0.08,-0.66,-0.65,-0.64
143.44,-0.74,-0.05,-0.73,-0.04,0.03,0.02,-0.71,-0.70,-0.69
144.87,-0.70,0.03,-0.71,0.02,-0.02,-0.04,-0.72,-0.74,-0.73
146.32,-0.70,0.09,-0.70,0.09,-0.07,-0.08,-0.78,-0.78,-0.79
147.78,-0.70,0.14,-0.70,0.14,-0.12,-0.12,-0.82,-0.82,-0.84
149.26,-0.70,0.17,-0.70,0.18,-0.17,-0.15,-0.87,-0.87,-0.87
150.75,-0.70,0.21,-0.70,0.21,-0.21,-0.18,-0.91,-0.91,-0.91
152.26,-0.70,0.24,-0.70,0.24,-0.25,-0.20,-0.95,-0.95,-0.95
153.78,-0.70,0.27,-0.70,0.27,-0.28,-0.23,-0.98,-0.98,-0.97
155.32,-0.68,0.31,-0.69,0.30,-0.31,-0.25,-0.99,-0.99,-0.99
156.88,-0.68,0.32,-0.67,0.33,-0.33,-0.28,-1.01,-1.00,-1.00
158.44,-0.65,0.37,-0.66,0.36,-0.35,-0.31,-1.00,-1.01,-1.02
160.03,-0.65,0.37,-0.65,0.38,-0.36,-0.34,-1.01,-1.01,-1.02
161.63,-0.65,0.39,-0.65,0.39,-0.37,-0.37,-1.02,-1.02,-1.04
163.24,-0.65,0.40,-0.66,0.39,-0.38,-0.40,-1.03,-1.04,-1.05
164.88,-0.68,0.37,-0.67,0.39,-0.40,-0.44,-1.08,-1.07,-1.06
166.53,-0.68,0.39,-0.69,0.39,-0.41,-0.47,-1.10,-1.10,-1.08
168.19,-0.70,0.40,-0.70,0.41,-0.44,-0.51,-1.14,-1.14,-1.10
169.87,-0.70,0.45,-0.70,0.45,-0.47,-0.54,-1.17,-1.17,-1.15
171.57,-0.70,0.50,-0.70,0.50,-0.50,-0.58,-1.20,-1.20,-1.20
173.29,-0.70,0.55,-0.70,0.56,-0.54,-0.62,-1.25,-1.24,-1.25
175.02,-0.70,0.63,-0.71,0.61,-0.59,-0.66,-1.29,-1.30,-1.33
176.77,-0.72,0.66,-0.72,0.66,-0.65,-0.70,-1.37,-1.37,-1.38
178.54,-0.75,0.69,-0.74,0.70,-0.70,-0.75,-1.45,-1.44,-1.44
180.32,-0.75,0.75,-0.75,0.75,-0.76,-0.79,-1.51,-1.51,-1.50
182.13,-0.75,0.80,-0.75,0.80,-0.81,-0.83,-1.56,-1.56,-1.55
183.95,-0.75,0.87,-0.75,0.87,-0.86,-0.88,-1.62,-1.62,-1.62
185.79,-0.75,0.93,-0.75,0.93,-0.92,-0.93,-1.67,-1.67,-1.68
187.65,-0.75,0.99,-0.75,0.98,-0.99,-0.98,-1.74,-1.74,-1.74
189.52,-0.75,1.04,-0.75,1.04,-1.05,-1.03,-1.80,-1.80,-1.79
191.42,-0.75,1.09,-0.74,1.11,-1.12,-1.09,-1.87,-1.86,-1.84
193.33,-0.72,1.18,-0.72,1.18,-1.18,-1.15,-1.91,-1.91,-1.90
195.27,-0.70,1.26,-0.71,1.25,-1.25,-1.21,-1.95,-1.96,-1.96
197.22,-0.70,1.31,-0.70,1.32,-1.30,-1.27,-2.01,-2.00,-2.01
199.19,-0.70,1.36,-0.70,1.37,-1.36,-1.33,-2.06,-2.06,-2.07
201.18,-0.70,1.42,-0.70,1.41,-1.40,-1.38,-2.10,-2.10,-2.12
203.19,-0.70,1.44,-0.70,1.44,-1.43,-1.43,-2.13,-2.13,-2.14
205.23,-0.70,1.46,-0.70,1.46,-1.46,-1.46,-2.16,-2.16,-2.16
207.28,-0.70,1.48,-0.70,1.47,-1.47,-1.49,-2.17,-2.17,-2.18
209.35,-0.70,1.48,-0.70,1.48,-1.48,-1.50,-2.18,-2.18,-2.18
211.44,-0.70,1.47,-0.70,1.47,-1.48,-1.51,-2.18,-2.18,-2.17
213.56,-0.70,1.47,-0.70,1.47,-1.48,-1.49,-2.18,-2.18,-2.17
215.69,-0.70,1.46,-0.70,1.46,-1.47,-1.47,-2.17,-2.17,-2.16
217.85,-0.70,1.45,-0.70,1.45,-1.45,-1.45,-2.15,-2.15,-2.15
220.03,-0.70,1.45,-0.70,1.45,-1.44,-1.42,-2.14,-2.13,-2.15
222.23,-0.70,1.44,-0.71,1.43,-1.42,-1.40,-2.12,-2.12,-2.15
224.45,-0.72,1.40,-0.72,1.40,-1.39,-1.37,-2.12,-2.12,-2.12
226.70,-0.75,1.35,-0.74,1.36,-1.37,-1.35,-2.12,-2.11,-2.10
228.96,-0.75,1.33,-0.75,1.34,-1.35,-1.32,-2.10,-2.10,-2.08
231.25,-0.75,1.33,-0.75,1.31,-1.32,-1.30,-2.08,-2.08,-2.08
233.57,-0.75,1.30,-0.75,1.30,-1.30,-1.28,-2.05,-2.05,-2.05
235.90,-0.75,1.27,-0.75,1.28,-1.27,-1.27,-2.02,-2.02,-2.02
238.26,-0.75,1.27,-0.75,1.26,-1.25,-1.25,-2.00,-2.00,-2.02
240.64,-0.75,1.24,-0.75,1.24,-1.23,-1.24,-1.98,-1.98,-1.99
243.05,-0.75,1.23,-0.75,1.22,-1.22,-1.23,-1.97,-1.97,-1.98
245.48,-0.75,1.20,-0.75,1.20,-1.21,-1.23,-1.96,-1.96,-1.95
247.93,-0.75,1.18,-0.75,1.19,-1.20,-1.22,-1.96,-1.96,-1.93
250.41,-0.75,1.20,-0.75,1.19,-1.21,-1.23,-1.96,-1.96,-1.95
252.92,-0.75,1.21,-0.75,1.22,-1.23,-1.25,-1.98,-1.98,-1.97
255.45,-0.75,1.26,-0.75,1.25,-1.26,-1.28,-2.01,-2.01,-2.01
258.00,-0.75,1.30,-0.75,1.30,-1.30,-1.31,-2.05,-2.05,-2.05
260.58,-0.75,1.35,-0.75,1.36,-1.35,-1.36,-2.10,-2.10,-2.10
263.19,-0.75,1.42,-0.75,1.41,-1.41,-1.40,-2.16,-2.16,-2.17
265.82,-0.75,1.48,-0.75,1.47,-1.46,-1.46,-2.21,-2.21,-2.23
268.48,-0.75,1.53,-0.75,1.53,-1.52,-1.51,-2.27,-2.27,-2.28
271.16,-0.75,1.57,-0.75,1.58,-1.58,-1.57,-2.33,-2.33,-2.32
273.87,-0.75,1.63,-0.76,1.62,-1.63,-1.62,-2.38,-2.39,-2.39
276.61,-0.77,1.67,-0.76,1.67,-1.68,-1.67,-2.45,-2.44,-2.44
279.38,-0.77,1.71,-0.77,1.72,-1.72,-1.71,-2.49,-2.49,-2.48
282.17,-0.77,1.76,-0.77,1.76,-1.75,-1.75,-2.52,-2.53,-2.53
284.99,-0.77,1.80,-0.78,1.79,-1.78,-1.77,-2.55,-2.56,-2.57
287.84,-0.79,1.81,-0.78,1.82,-1.81,-1.79,-2.60,-2.59,-2.61
290.72,-0.79,1.83,-0.79,1.83,-1.82,-1.81,-2.61,-2.61,-2.62
293.63,-0.79,1.83,-0.79,1.83,-1.84,-1.82,-2.63,-2.63,-2.62
296.57,-0.79,1.84,-0.79,1.84,-1.84,-1.83,-2.63,-2.63,-2.63
299.53,-0.79,1.84,-0.79,1.84,-1.84,-1.84,-2.64,-2.64,-2.63
302.53,-0.79,1.84,-0.79,1.85,-1.84,-1.85,-2.64,-2.63,-2.63
305.55,-0.79,1.86,-0.79,1.85,-1.84,-1.86,-2.63,-2.64,-2.65
308.61,-0.79,1.86,-0.81,1.84,-1.84,-1.87,-2.64,-2.65,-2.65
311.69,-0.84,1.82,-0.82,1.84,-1.85,-1.87,-2.69,-2.67,-2.66
314.81,-0.84,1.83,-0.84,1.84,-1.85,-1.87,-2.69,-2.69,-2.68
317.96,-0.84,1.85,-0.84,1.85,-1.85,-1.87,-2.69,-2.70,-2.69
321.14,-0.84,1.86,-0.84,1.86,-1.86,-1.87,-2.70,-2.70,-2.70
324.35,-0.84,1.87,-0.85,1.86,-1.87,-1.87,-2.71,-2.72,-2.71
327.59,-0.88,1.85,-0.87,1.87,-1.88,-1.87,-2.76,-2.74,-2.73
330.87,-0.88,1.87,-0.88,1.87,-1.88,-1.86,-2.76,-2.76,-2.75
334.18,-0.88,1.88,-0.88,1.87,-1.87,-1.85,-2.75,-2.75,-2.76
337.52,-0.88,1.86,-0.88,1.87,-1.84,-1.82,-2.73,-2.72,-2.74
340.90,-0.88,1.84,-0.88,1.84,-1.81,-1.79,-2.69,-2.69,-2.72
344.30,-0.88,1.79,-0.89,1.77,-1.75,-1.74,-2.63,-2.64,-2.67
347.75,-0.91,1.69,-0.91,1.69,-1.68,-1.68,-2.59,-2.59,-2.60
351.23,-0.93,1.58,-0.92,1.59,-1.59,-1.60,-2.52,-2.51,-2.51
354.74,-0.93,1.50,-0.93,1.49,-1.49,-1.51,-2.42,-2.42,-2.43
358.28,-0.93,1.40,-0.93,1.39,-1.39,-1.40,-2.32,-2.32,-2.33
361.87,-0.93,1.30,-0.93,1.29,-1.28,-1.30,-2.21,-2.21,-2.23
365.49,-0.93,1.18,-0.93,1.19,-1.19,-1.21,-2.12,-2.12,-2.11
369.14,-0.93,1.09,-0.93,1.10,-1.12,-1.13,-2.05,-2.05,-2.02
372.83,-0.93,1.04,-0.93,1.03,-1.07,-1.07,-2.00,-2.00,-1.97
376.56,-0.93,1.01,-0.93,1.01,-1.04,-1.04,-1.97,-1.97,-1.94
380.33,-0.93,1.01,-0.93,1.01,-1.04,-1.04,-1.98,-1.98,-1.94
384.13,-0.93,1.05,-0.93,1.05,-1.07,-1.07,-2.00,-2.00,-1.98
387.97,-0.93,1.11,-0.93,1.12,-1.13,-1.13,-2.06,-2.06,-2.04
391.85,-0.93,1.21,-0.93,1.21,-1.20,-1.20,-2.13,-2.12,-2.14
395.77,-0.93,1.31,-0.93,1.30,-1.28,-1.29,-2.21,-2.21,-2.24
399.73,-0.93,1.40,-0.94,1.39,-1.37,-1.39,-2.30,-2.31,-2.33
403.72,-0.95,1.47,-0.94,1.48,-1.46,-1.48,-2.41,-2.40,-2.42
407.76,-0.95,1.56,-0.95,1.56,-1.56,-1.58,-2.51,-2.51,-2.51
411.84,-0.95,1.64,-0.96,1.63,-1.65,-1.67,-2.60,-2.61,-2.59
415.96,-0.98,1.71,-0.97,1.72,-1.74,-1.75,-2.72,-2.71,-2.69
420.12,-0.98,1.81,-0.98,1.81,-1.83,-1.83,-2.81,-2.81,-2.79
424.32,-0.98,1.91,-0.98,1.90,-1.90,-1.90,-2.89,-2.89,-2.89
428.56,-0.98,1.98,-0.98,1.98,-1.97,-1.96,-2.95,-2.95,-2.96
432.85,-0.98,2.04,-0.98,2.04,-2.01,-2.00,-2.99,-2.99,-3.02
437.18,-0.98,2.07,-0.98,2.07,-2.04,-2.02,-3.02,-3.02,-3.05
441.55,-0.98,2.08,-0.98,2.08,-2.05,-2.03,-3.03,-3.03,-3.06
445.96,-0.98,2.06,-0.98,2.05,-2.03,-2.02,-3.02,-3.02,-3.04
450.42,-0.98,2.00,-0.98,2.00,-2.01,-2.00,-2.99,-2.99,-2.98
454.93,-0.98,1.95,-0.98,1.94,-1.96,-1.97,-2.94,-2.94,-2.93
459.48,-0.98,1.87,-0.97,1.89,-1.91,-1.92,-2.89,-2.88,-2.85
464.07,-0.95,1.85,-0.96,1.84,-1.86,-1.88,-2.81,-2.82,-2.80
468.71,-0.95,1.80,-0.95,1.80,-1.80,-1.82,-2.75,-2.75,-2.75
473.40,-0.93,1.75,-0.93,1.75,-1.75,-1.76,-2.68,-2.68,-2.68
478.13,-0.93,1.69,-0.93,1.70,-1.70,-1.70,-2.63,-2.63,-2.63
482.91,-0.93,1.65,-0.93,1.65,-1.65,-1.64,-2.58,-2.58,-2.58
487.74,-0.93,1.61,-0.93,1.61,-1.60,-1.59,-2.54,-2.54,-2.54
492.62,-0.93,1.57,-0.93,1.57,-1.56,-1.54,-2.49,-2.49,-2.50
497.55,-0.93,1.53,-0.93,1.53,-1.52,-1.51,-2.45,-2.45,-2.46
502.52,-0.93,1.49,-0.93,1.50,-1.49,-1.48,-2.42,-2.42,-2.42
507.55,-0.93,1.47,-0.93,1.47,-1.47,-1.47,-2.40,-2.40,-2.40
512.62,-0.93,1.45,-0.93,1.45,-1.46,-1.47,-2.39,-2.39,-2.38
517.75,-0.93,1.44,-0.93,1.45,-1.46,-1.48,-2.39,-2.39,-2.38
522.93,-0.93,1.47,-0.94,1.46,-1.48,-1.50,-2.42,-2.42,-2.40
528.16,-0.93,1.50,-0.93,1.50,-1.52,-1.54,-2.45,-2.45,-2.43
533.44,-0.93,1.54,-0.91,1.56,-1.57,-1.59,-2.51,-2.49,-2.47
538.77,-0.88,1.65,-0.90,1.63,-1.64,-1.65,-2.52,-2.54,-2.53
544.16,-0.88,1.72,-0.89,1.72,-1.71,-1.71,-2.59,-2.60,-2.60
549.60,-0.88,1.80,-0.87,1.80,-1.79,-1.78,-2.67,-2.66,-2.68
555.10,-0.88,1.86,-0.87,1.87,-1.87,-1.86,-2.75,-2.73,-2.74
560.65,-0.84,1.95,-0.85,1.94,-1.94,-1.93,-2.78,-2.79,-2.79
566.25,-0.84,1.99,-0.85,2.00,-2.00,-2.00,-2.84,-2.85,-2.84
571.92,-0.84,2.05,-0.84,2.05,-2.05,-2.04,-2.89,-2.88,-2.89
577.64,-0.84,2.07,-0.83,2.08,-2.07,-2.07,-2.91,-2.90,-2.91
